0.001 0.7280642
0.002 0.6778565
0.003 0.6791439
0.004 0.5890275
0.005 0.5619926
0.006 0.505348
0.007 0.5607052
0.008 0.5401072
0.009 0.5967517
0.01 0.6482468
0.011 0.8053068
0.012 0.9288949
0.013 0.9958385
0.014 1.087242
0.015 1.290648
0.016 1.383339
0.017 1.526238
0.018 1.580308
0.019 1.661412
0.02 1.74123
0.021 1.734793
0.022 1.757966
0.023 1.747667
0.024 1.774701
0.025 1.745092
0.026 1.689735
0.027 1.624078
0.028 1.597043
0.029 1.627941
0.03 1.626653
0.031 1.588032
0.032 1.627941
0.033 1.643389
0.034 1.616354
0.035 1.504352
0.036 1.463156
0.037 1.320257
0.038 1.230141
0.039 1.134875
0.04 0.9482056
0.041 0.8864115
0.042 0.7023166
0.043 0.5825906
0.044 0.5349577
0.045 0.4718762
0.046 0.4087947
0.047 0.3264026
0.048 0.3778977
0.049 0.4229559
0.05 0.4023579
0.051 0.4796005
0.052 0.5491188
0.053 0.6611206
0.054 0.6881555
0.055 0.7267768
0.056 0.8091689
0.057 0.8593766
0.058 0.7847088
0.059 0.7692602
0.06 0.7525243
0.061 0.6907303
0.062 0.6109129
0.063 0.5413945
0.064 0.4911869
0.065 0.4487034
0.066 0.4100821
0.067 0.3972084
0.068 0.4564277
0.069 0.495049
0.07 0.4963364
0.071 0.5529809
0.0720000000000001 0.6392352
0.0730000000000001 0.713903
0.0740000000000001 0.8362038
0.0750000000000001 0.8233301
0.0760000000000001 0.8825494
0.0770000000000001 0.8555145
0.0780000000000001 0.8864115
0.0790000000000001 0.7834214
0.0800000000000001 0.7422253
0.0810000000000001 0.6868681
0.0820000000000001 0.6533963
0.0830000000000001 0.6070508
0.0840000000000001 0.4976237
0.0850000000000001 0.4384044
0.0860000000000001 0.3727482
0.0870000000000001 0.3740356
0.0880000000000001 0.4190938
0.0890000000000001 0.4628646
0.0900000000000001 0.447416
0.0910000000000001 0.5851654
0.0920000000000001 0.6096255
0.0930000000000001 0.7563865
0.0940000000000001 0.7345011
0.0950000000000001 0.8078815
0.0960000000000001 0.8465028
0.0970000000000001 0.8967105
0.0980000000000001 0.8722504
0.0990000000000001 0.7962951
0.1 0.7550991
0.101 0.7357884
0.102 0.6366604
0.103 0.5594178
0.104 0.4783131
0.105 0.4963364
0.106 0.4229559
0.107 0.4422665
0.108 0.4229559
0.109 0.4345423
0.11 0.474451
0.111 0.5516936
0.112 0.6160624
0.113 0.7151904
0.114 0.751237
0.115 0.8439281
0.116 0.9082969
0.117 0.9147338
0.118 0.8323417
0.119 0.8271922
0.12 0.8091689
0.121 0.6894429
0.122 0.6418099
0.123 0.5491188
0.124 0.5568431
0.125 0.4384044
0.126 0.4461287
0.127 0.4113695
0.128 0.4422665
0.129 0.5066354
0.13 0.56328
0.131 0.583878
0.132 0.7087535
0.133 0.7872835
0.134 0.8413533
0.135 0.8387786
0.136 0.9005727
0.137 0.9276076
0.138 0.8889863
0.139 0.8297669
0.14 0.7898583
0.141 0.6997419
0.142 0.6443847
0.143 0.5800159
0.144 0.583878
0.145 0.4911869
0.146 0.4229559
0.147 0.4255306
0.148 0.5014859
0.149 0.5349577
0.15 0.5800159
0.151 0.5980391
0.152 0.6714196
0.153 0.7641107
0.154 0.792433
0.155 0.8490776
0.156 0.9456308
0.157 0.9482056
0.158 0.9005727
0.159 0.90186
0.16 0.8632387
0.161 0.8040194
0.162 0.7267768
0.163 0.5993265
0.164 0.5298082
0.165 0.4783131
0.166 0.4963364
0.167 0.4345423
0.168 0.4435539
0.169 0.5001985
0.17 0.5439693
0.171 0.6212119
0.172 0.7280642
0.173 0.7576738
0.174 0.881262
0.175 0.8786873
0.176 0.9585046
0.177 0.9250328
0.178 0.9057222
0.179 0.9005727
0.18 0.8838368
0.181 0.7834214
0.182 0.6958798
0.183 0.6096255
0.184 0.5594178
0.185 0.5143596
0.186 0.5169344
0.187 0.4525656
0.188 0.4860373
0.189 0.515647
0.19 0.5813032
0.191 0.6546837
0.192 0.7229147
0.193 0.8336291
0.194 0.8658135
0.195 0.9160212
0.196 0.9726658
0.197 0.9752405
0.198 0.9765279
0.199 0.9945512
0.2 0.9263202
0.201 0.8632387
0.202 0.7087535
0.203 0.6546837
0.204 0.6083381
0.205 0.5607052
0.206 0.5014859
0.207 0.5555557
0.208 0.5349577
0.209 0.5542683
0.21 0.6482468
0.211 0.6688448
0.212 0.7872835
0.213 0.8864115
0.214 0.881262
0.215 0.9533551
0.216 0.9572172
0.217 1.030598
0.218 1.025448
0.219 0.9520677
0.22 0.9185959
0.221 0.8645261
0.222 0.782134
0.223 0.7254894
0.224 0.6327983
0.225 0.5890275
0.226 0.5426819
0.227 0.5980391
0.228 0.5542683
0.229 0.6598332
0.23 0.6649827
0.231 0.724202
0.232 0.8568019
0.233 0.9366192
0.234 0.9198833
0.235 0.9816774
0.236 1.042184
0.237 1.05892
0.238 1.042184
0.239 0.9778153
0.24 0.9610794
0.241 0.9211707
0.242 0.8271922
0.243 0.7666855
0.244 0.7203399
0.245 0.713903
0.246 0.6263614
0.247 0.6302235
0.248 0.7048914
0.249 0.6984545
0.25 0.7422253
0.251 0.8490776
0.252 0.8748251
0.253 0.98039
0.254 1.039609
0.255 1.079518
0.256 1.138737
0.257 1.185083
0.258 1.170922
0.259 1.05377
0.26 1.076943
0.261 0.9919764
0.262 0.9185959
0.263 0.8220427
0.264 0.7666855
0.265 0.724202
0.266 0.7087535
0.267 0.683006
0.268 0.6945924
0.269 0.7847088
0.27 0.860664
0.271 0.9224581
0.272 0.9404813
0.273 1.035747
0.274 1.071794
0.275 1.173497
0.276 1.164485
0.277 1.159335
0.278 1.201819
0.279 1.154186
0.28 1.065357
0.281 1.00485
0.282 0.9340445
0.283 0.891561
0.284 0.8233301
0.285 0.7705476
0.286 0.7293516
0.287 0.7074661
0.288 0.7859961
0.289 0.7859961
0.29 0.8979979
0.291 0.90186
0.292 0.9585046
0.293 1.039609
0.294 1.147749
0.295 1.209543
0.296 1.169634
0.297 1.21598
0.298 1.155473
0.299 1.181221
0.3 1.06407
0.301 1.03446
0.302 1.006138
0.303 0.8735377
0.304 0.813031
0.305 0.7448001
0.306 0.6894429
0.307 0.662408
0.308 0.6945924
0.309 0.7074661
0.31 0.7383632
0.311 0.813031
0.312 0.9134464
0.313 0.9894017
0.314 1.042184
0.315 1.037035
0.316 1.080805
0.317 1.100116
0.318 1.073081
0.319 0.9945512
0.32 0.9108717
0.321 0.8323417
0.322 0.7602486
0.323 0.703604
0.324 0.6173498
0.325 0.5169344
0.326 0.5310955
0.327 0.4796005
0.328 0.4770257
0.329 0.5581304
0.33 0.5671421
0.331 0.6430973
0.332 0.6701322
0.333 0.7087535
0.334 0.7692602
0.335 0.8284796
0.336 0.9147338
0.337 0.8336291
0.338 0.8568019
0.339 0.8259048
0.34 0.7370758
0.341 0.6752817
0.342 0.594177
0.343 0.5001985
0.344 0.48475
0.345 0.3753229
0.346 0.3907715
0.347 0.3083794
0.348 0.3637366
0.349 0.3701734
0.35 0.4680141
0.351 0.4796005
0.352 0.5568431
0.353 0.6842934
0.354 0.7254894
0.355 0.7847088
0.356 0.8078815
0.357 0.7872835
0.358 0.7679729
0.359 0.7203399
0.36 0.6881555
0.361 0.625074
0.362 0.5413945
0.363 0.4705888
0.364 0.4023579
0.365 0.3830472
0.366 0.3135289
0.367 0.3019425
0.368 0.3367016
0.369 0.3778977
0.37 0.3984957
0.371 0.4963364
0.372 0.5491188
0.373 0.6263614
0.374 0.6997419
0.375 0.7448001
0.376 0.8220427
0.377 0.8323417
0.378 0.7538117
0.379 0.7576738
0.38 0.6842934
0.381 0.6508216
0.382 0.5516936
0.383 0.5169344
0.384 0.4654393
0.385 0.4113695
0.386 0.3032299
0.387 0.3663113
0.388 0.3341269
0.389 0.4023579
0.39 0.4564277
0.391 0.5401072
0.392 0.5568431
0.393 0.6160624
0.394 0.6842934
0.395 0.7409379
0.396 0.7808466
0.397 0.7898583
0.398 0.7705476
0.399 0.751237
0.4 0.7383632
0.401 0.6430973
0.402 0.5684295
0.403 0.4680141
0.404 0.4345423
0.405 0.4178064
0.406 0.3238279
0.407 0.3585871
0.408 0.3753229
0.409 0.3727482
0.41 0.4281054
0.411 0.5285208
0.412 0.5697168
0.413 0.625074
0.414 0.7061788
0.415 0.8297669
0.416 0.8156058
0.417 0.8297669
0.418 0.8078815
0.419 0.7975825
0.42 0.7151904
0.421 0.6701322
0.422 0.5722916
0.423 0.5027732
0.424 0.505348
0.425 0.4049326
0.426 0.3714608
0.427 0.3598744
0.428 0.3714608
0.429 0.4075074
0.43 0.4834626
0.431 0.56328
0.432 0.5800159
0.433 0.6675575
0.434 0.7293516
0.435 0.7782719
0.436 0.8156058
0.437 0.8748251
0.438 0.850365
0.439 0.751237
0.44 0.7460875
0.441 0.6894429
0.442 0.625074
0.443 0.5014859
0.444 0.4976237
0.445 0.3933462
0.446 0.3302648
0.447 0.3444259
0.448 0.3624492
0.449 0.4538529
0.45 0.4332549
0.451 0.5195091
0.452 0.6057634
0.453 0.6508216
0.454 0.7203399
0.455 0.7538117
0.456 0.8284796
0.457 0.8104563
0.458 0.8349164
0.459 0.7911456
0.46 0.7357884
0.461 0.672707
0.462 0.5890275
0.463 0.5285208
0.464 0.4886121
0.465 0.416519
0.466 0.3894841
0.467 0.416519
0.468 0.3804725
0.469 0.4538529
0.47 0.4628646
0.471 0.6019013
0.472 0.604476
0.473 0.6585458
0.474 0.7177652
0.475 0.7885709
0.476 0.8117437
0.477 0.8387786
0.478 0.7885709
0.479 0.7576738
0.48 0.7396506
0.481 0.724202
0.482 0.5916022
0.483 0.573579
0.484 0.5001985
0.485 0.4087947
0.486 0.3457133
0.487 0.3547249
0.488 0.3753229
0.489 0.4010705
0.49 0.4911869
0.491 0.505348
0.492 0.5980391
0.493 0.6752817
0.494 0.7319263
0.495 0.7808466
0.496 0.8387786
0.497 0.8387786
0.498 0.8001573
0.499 0.761536
0.5 0.7898583
0.501 0.6675575
0.502 0.5825906
0.503 0.5182218
0.504 0.5207965
0.505 0.4075074
0.506 0.3675987
0.507 0.4281054
0.508 0.3933462
0.509 0.4178064
0.51 0.4615772
0.511 0.5388198
0.512 0.6611206
0.513 0.7126157
0.514 0.7847088
0.515 0.7679729
0.516 0.813031
0.517 0.8374912
0.518 0.8220427
0.519 0.7679729
0.52 0.7808466
0.521 0.6636953
0.522 0.5967517
0.523 0.5671421
0.524 0.4499908
0.525 0.4409792
0.526 0.4087947
0.527 0.3508628
0.528 0.3817598
0.529 0.4667267
0.53 0.4770257
0.531 0.5310955
0.532 0.5903149
0.533 0.6714196
0.534 0.7319263
0.535 0.802732
0.536 0.8233301
0.537 0.8941358
0.538 0.8722504
0.539 0.8065942
0.54 0.7473748
0.541 0.7023166
0.542 0.662408
0.543 0.5375324
0.544 0.5246587
0.545 0.4203811
0.546 0.3714608
0.547 0.3572997
0.548 0.4075074
0.549 0.4628646
0.55 0.4821752
0.551 0.5298082
0.552 0.583878
0.553 0.7306389
0.554 0.7383632
0.555 0.7744097
0.556 0.8452155
0.557 0.8696756
0.558 0.8349164
0.559 0.7988699
0.56 0.8053068
0.561 0.7216273
0.562 0.6392352
0.563 0.56328
0.564 0.4834626
0.565 0.4139443
0.566 0.4049326
0.567 0.3881967
0.568 0.3894841
0.569 0.474451
0.57 0.4731636
0.571 0.6083381
0.572 0.683006
0.573 0.7100409
0.574 0.751237
0.575 0.8001573
0.576 0.8619514
0.577 0.8619514
0.578 0.8928484
0.579 0.8568019
0.58 0.7589612
0.581 0.6675575
0.582 0.6456721
0.583 0.5452567
0.584 0.5555557
0.585 0.4718762
0.586 0.3830472
0.587 0.4023579
0.588 0.3946336
0.589 0.4242433
0.59 0.4654393
0.591 0.5954644
0.592 0.6109129
0.593 0.6817186
0.594 0.8053068
0.595 0.8593766
0.596 0.8748251
0.597 0.8439281
0.598 0.7937204
0.599 0.7950078
0.6 0.7550991
0.601 0.6907303
0.602 0.6675575
0.603 0.5401072
0.604 0.4821752
0.605 0.4525656
0.606 0.3778977
0.607 0.3701734
0.608 0.3881967
0.609 0.4152316
0.61 0.4705888
0.611 0.5800159
0.612 0.604476
0.613 0.7383632
0.614 0.7525243
0.615 0.7872835
0.616 0.9121591
0.617 0.870963
0.618 0.8954232
0.619 0.792433
0.62 0.7589612
0.621 0.6920176
0.622 0.6160624
0.623 0.5607052
0.624 0.4886121
0.625 0.4731636
0.626 0.3740356
0.627 0.4564277
0.628 0.4680141
0.629 0.48475
0.63 0.5169344
0.631 0.5993265
0.632 0.6199245
0.633 0.6958798
0.634 0.7589612
0.635 0.8735377
0.636 0.9070095
0.637 0.8864115
0.638 0.8271922
0.639 0.8220427
0.64 0.771835
0.641 0.6984545
0.642 0.703604
0.643 0.5504062
0.644 0.4989111
0.645 0.4538529
0.646 0.4087947
0.647 0.3817598
0.648 0.4551403
0.649 0.4422665
0.65 0.4705888
0.651 0.5851654
0.652 0.6224993
0.653 0.7061788
0.654 0.7641107
0.655 0.7911456
0.656 0.8529397
0.657 0.8568019
0.658 0.9005727
0.659 0.8181805
0.66 0.7679729
0.661 0.7074661
0.662 0.6868681
0.663 0.5671421
0.664 0.5130723
0.665 0.4538529
0.666 0.4422665
0.667 0.3804725
0.668 0.4461287
0.669 0.4641519
0.67 0.4796005
0.671 0.6134876
0.672 0.6662701
0.673 0.7435127
0.674 0.7499496
0.675 0.8220427
0.676 0.8722504
0.677 0.8786873
0.678 0.9121591
0.679 0.8362038
0.68 0.8297669
0.681 0.7087535
0.682 0.6598332
0.683000000000001 0.5684295
0.684000000000001 0.5413945
0.685000000000001 0.4499908
0.686000000000001 0.4435539
0.687000000000001 0.4512782
0.688000000000001 0.4126569
0.689000000000001 0.4293928
0.690000000000001 0.5298082
0.691000000000001 0.5658547
0.692000000000001 0.7074661
0.693000000000001 0.7319263
0.694000000000001 0.7628233
0.695000000000001 0.8220427
0.696000000000001 0.8477902
0.697000000000001 0.8876989
0.698000000000001 0.9005727
0.699000000000001 0.8851241
0.700000000000001 0.7898583
0.701000000000001 0.792433
0.702000000000001 0.6765691
0.703000000000001 0.6598332
0.704000000000001 0.5529809
0.705000000000001 0.5542683
0.706000000000001 0.4976237
0.707000000000001 0.4487034
0.708000000000001 0.4757383
0.709000000000001 0.5182218
0.710000000000001 0.5581304
0.711000000000001 0.7048914
0.712000000000001 0.703604
0.713000000000001 0.7988699
0.714000000000001 0.9070095
0.715000000000001 0.8786873
0.716000000000001 1.008712
0.717000000000001 1.00485
0.718000000000001 0.9288949
0.719000000000001 0.9070095
0.720000000000001 0.860664
0.721000000000001 0.8477902
0.722000000000001 0.7177652
0.723000000000001 0.6752817
0.724000000000001 0.5813032
0.725000000000001 0.5426819
0.726000000000001 0.5452567
0.727000000000001 0.5375324
0.728000000000001 0.5748663
0.729000000000001 0.5375324
0.730000000000001 0.5877401
0.731000000000001 0.7306389
0.732000000000001 0.7679729
0.733000000000001 0.8220427
0.734000000000001 0.939194
0.735000000000001 0.9623667
0.736000000000001 1.067932
0.737000000000001 1.013862
0.738000000000001 0.9688036
0.739000000000001 1.028023
0.740000000000001 0.98039
0.741000000000001 0.8864115
0.742000000000001 0.7898583
0.743000000000001 0.7898583
0.744000000000001 0.6881555
0.745000000000001 0.6636953
0.746000000000001 0.5774411
0.747000000000001 0.5890275
0.748000000000001 0.6019013
0.749000000000001 0.625074
0.750000000000001 0.7267768
0.751000000000001 0.8065942
0.752000000000001 0.8078815
0.753000000000001 0.8683882
0.754000000000001 0.9237454
0.755000000000001 0.9507804
0.756000000000001 1.069219
0.757000000000001 1.06407
0.758000000000001 1.037035
0.759000000000001 0.9533551
0.760000000000001 0.8928484
0.761000000000001 0.8284796
0.762000000000001 0.8233301
0.763000000000001 0.7023166
0.764000000000001 0.6057634
0.765000000000001 0.5568431
0.766000000000001 0.56328
0.767000000000001 0.5401072
0.768000000000001 0.4937616
0.769000000000001 0.5465441
0.770000000000001 0.5516936
0.771000000000001 0.6533963
0.772000000000001 0.6881555
0.773000000000001 0.7975825
0.774000000000001 0.7666855
0.775000000000001 0.9070095
0.776000000000001 0.8748251
0.777000000000001 0.939194
0.778000000000001 0.9082969
0.779000000000001 0.8465028
0.780000000000001 0.8091689
0.781000000000001 0.7010293
0.782000000000001 0.6392352
0.783000000000001 0.5903149
0.784000000000001 0.5478314
0.785000000000001 0.4873247
0.786000000000001 0.3920588
0.787000000000001 0.4306801
0.788000000000001 0.4396918
0.789000000000001 0.4693015
0.790000000000001 0.4770257
0.791000000000001 0.5426819
0.792000000000001 0.625074
0.793000000000001 0.7576738
0.794000000000001 0.7409379
0.795000000000001 0.7808466
0.796000000000001 0.8194679
0.797000000000001 0.8529397
0.798000000000001 0.8168932
0.799000000000001 0.8078815
0.800000000000001 0.7435127
0.801000000000001 0.6752817
0.802000000000001 0.6160624
0.803000000000001 0.6031886
0.804000000000001 0.4873247
0.805000000000001 0.4396918
0.806000000000001 0.4203811
0.807000000000001 0.3560123
0.808000000000001 0.4564277
0.809000000000001 0.4641519
0.810000000000001 0.5014859
0.811000000000001 0.56328
0.812000000000001 0.6057634
0.813000000000001 0.7010293
0.814000000000001 0.7460875
0.815000000000001 0.8156058
0.816000000000001 0.8761125
0.817000000000001 0.8477902
0.818000000000001 0.8336291
0.819000000000001 0.8452155
0.820000000000001 0.7782719
0.821000000000001 0.6791439
0.822000000000001 0.6160624
0.823000000000001 0.5478314
0.824000000000001 0.4976237
0.825000000000001 0.447416
0.826000000000001 0.437117
0.827000000000001 0.3753229
0.828000000000001 0.395921
0.829000000000001 0.4178064
0.830000000000001 0.4886121
0.831000000000001 0.5336703
0.832000000000001 0.6134876
0.833000000000001 0.6739944
0.834000000000001 0.7396506
0.835000000000001 0.8001573
0.836000000000001 0.8658135
0.837000000000001 0.8516523
0.838000000000001 0.8529397
0.839000000000001 0.8619514
0.840000000000001 0.7950078
0.841000000000001 0.7576738
0.842000000000001 0.672707
0.843000000000001 0.5439693
0.844000000000001 0.536245
0.845000000000001 0.4306801
0.846000000000001 0.4422665
0.847000000000001 0.3804725
0.848000000000001 0.3946336
0.849000000000001 0.4332549
0.850000000000001 0.4641519
0.851000000000001 0.5323829
0.852000000000001 0.6405226
0.853000000000001 0.6778565
0.854000000000001 0.8014447
0.855000000000001 0.7975825
0.856000000000001 0.8452155
0.857000000000001 0.8362038
0.858000000000001 0.840066
0.859000000000001 0.8104563
0.860000000000001 0.7692602
0.861000000000001 0.7293516
0.862000000000001 0.6945924
0.863000000000001 0.5671421
0.864000000000001 0.4963364
0.865000000000001 0.4615772
0.866000000000001 0.3907715
0.867000000000001 0.4190938
0.868000000000001 0.4461287
0.869000000000001 0.474451
0.870000000000001 0.5066354
0.871000000000001 0.5697168
0.872000000000001 0.6134876
0.873000000000001 0.6765691
0.874000000000001 0.7859961
0.875000000000001 0.8516523
0.876000000000001 0.8645261
0.877000000000001 0.8979979
0.878000000000001 0.8954232
0.879000000000001 0.9211707
0.880000000000001 0.8580892
0.881000000000001 0.8477902
0.882000000000001 0.7422253
0.883000000000001 0.693305
0.884000000000001 0.6585458
0.885000000000001 0.5439693
0.886000000000001 0.5169344
0.887000000000001 0.5401072
0.888000000000001 0.5748663
0.889000000000001 0.6585458
0.890000000000001 0.7576738
0.891000000000001 0.9276076
0.892000000000001 1.076943
0.893000000000001 1.205681
0.894000000000001 1.425822
0.895000000000001 1.509502
0.896000000000001 1.663987
0.897000000000001 1.832633
0.898000000000001 1.86868
0.899000000000001 1.997418
0.900000000000001 2.021878
0.901000000000001 1.967808
0.902000000000001 1.894428
0.903000000000001 1.895715
0.904000000000001 1.739942
0.905000000000001 1.670424
0.906000000000001 1.598331
0.907000000000001 1.506927
0.908000000000001 1.385914
0.909000000000001 1.316395
0.910000000000001 1.284211
0.911000000000001 1.24559
0.912000000000001 1.286786
0.913000000000001 1.178646
0.914000000000001 1.194095
0.915000000000001 1.118139
0.916000000000001 1.133588
0.917000000000001 1.019011
0.918000000000001 0.9546425
0.919000000000001 0.8773999
0.920000000000001 0.8014447
0.921000000000001 0.7692602
0.922000000000001 0.5993265
0.923000000000001 0.5298082
0.924000000000001 0.4989111
0.925000000000001 0.3984957
0.926000000000001 0.3508628
0.927000000000001 0.3096667
0.928000000000001 0.3766103
0.929000000000001 0.3418512
0.930000000000001 0.4319675
0.931000000000001 0.4873247
0.932000000000001 0.5813032
0.933000000000001 0.6019013
0.934000000000001 0.6765691
0.935000000000001 0.7267768
0.936000000000001 0.8078815
0.937000000000001 0.8748251
0.938000000000001 0.7988699
0.939000000000001 0.7847088
0.940000000000001 0.7460875
0.941000000000001 0.7409379
0.942000000000001 0.6173498
0.943000000000001 0.5452567
0.944000000000001 0.4937616
0.945000000000001 0.4512782
0.946000000000001 0.4100821
0.947000000000001 0.4461287
0.948000000000001 0.3894841
0.949000000000001 0.4770257
0.950000000000001 0.48475
0.951000000000001 0.5336703
0.952000000000001 0.6070508
0.953000000000001 0.6688448
0.954000000000001 0.7473748
0.955000000000001 0.7847088
0.956000000000001 0.8825494
0.957000000000001 0.8542271
0.958000000000001 0.8593766
0.959000000000001 0.8220427
0.960000000000001 0.7550991
0.961000000000001 0.7409379
0.962000000000001 0.6289362
0.963000000000001 0.5825906
0.964000000000001 0.5568431
0.965000000000001 0.4602898
0.966000000000001 0.4010705
0.967000000000001 0.3778977
0.968000000000001 0.3894841
0.969000000000001 0.4499908
0.970000000000001 0.4757383
0.971000000000001 0.5555557
0.972000000000001 0.6443847
0.973000000000001 0.7074661
0.974000000000001 0.7486622
0.975000000000001 0.7975825
0.976000000000001 0.8555145
0.977000000000001 0.8439281
0.978000000000001 0.8490776
0.979000000000001 0.8065942
0.980000000000001 0.7756971
0.981000000000001 0.7113283
0.982000000000001 0.6495342
0.983000000000001 0.5697168
0.984000000000001 0.5568431
0.985000000000001 0.4461287
0.986000000000001 0.4448413
0.987000000000001 0.4409792
0.988000000000001 0.416519
0.989000000000001 0.4911869
0.990000000000001 0.5195091
0.991000000000001 0.5761537
0.992000000000001 0.6533963
0.993000000000001 0.7357884
0.994000000000001 0.7859961
0.995000000000001 0.8040194
0.996000000000001 0.8992853
0.997000000000001 0.8580892
0.998000000000001 0.8825494
0.999000000000001 0.8349164
1 0.8271922
1.001 0.7666855
1.002 0.7151904
1.003 0.6031886
1.004 0.5310955
1.005 0.5272334
1.006 0.4255306
1.007 0.4113695
1.008 0.4538529
1.009 0.4525656
1.01 0.5529809
1.011 0.5813032
1.012 0.693305
1.013 0.7151904
1.014 0.7795592
1.015 0.8297669
1.016 0.949493
1.017 0.939194
1.018 0.8992853
1.019 0.8645261
1.02 0.8259048
1.021 0.7641107
1.022 0.672707
1.023 0.6585458
1.024 0.5890275
1.025 0.4873247
1.026 0.4255306
1.027 0.4667267
1.028 0.5001985
1.029 0.4628646
1.03 0.5143596
1.031 0.5877401
1.032 0.6688448
1.033 0.7486622
1.034 0.8156058
1.035 0.8773999
1.036 0.891561
1.037 0.9610794
1.038 0.8992853
1.039 0.8786873
1.04 0.8825494
1.041 0.8284796
1.042 0.7100409
1.043 0.6353731
1.044 0.5954644
1.045 0.5465441
1.046 0.4783131
1.047 0.5195091
1.048 0.5040606
1.049 0.5092101
1.05 0.5478314
1.051 0.6688448
1.05199999999999 0.6945924
1.05299999999999 0.8156058
1.05399999999999 0.8194679
1.05499999999999 0.860664
1.05599999999999 0.9366192
1.05699999999999 0.9211707
1.05799999999999 0.9057222
1.05899999999999 0.8967105
1.05999999999999 0.9237454
1.06099999999999 0.7988699
1.06199999999999 0.7306389
1.06299999999999 0.693305
1.06399999999999 0.6675575
1.06499999999999 0.5645673
1.06599999999999 0.5542683
1.06699999999999 0.5014859
1.06799999999999 0.515647
1.06899999999999 0.525946
1.06999999999999 0.6302235
1.07099999999999 0.6559711
1.07199999999999 0.7216273
1.07299999999999 0.8374912
1.07399999999999 0.8362038
1.07499999999999 0.9752405
1.07599999999999 1.022873
1.07699999999999 0.9919764
1.07799999999999 0.9726658
1.07899999999999 0.959792
1.07999999999999 0.9688036
1.08099999999999 0.8465028
1.08199999999999 0.8323417
1.08299999999999 0.7190525
1.08399999999999 0.7126157
1.08499999999999 0.6096255
1.08599999999999 0.56328
1.08699999999999 0.5336703
1.08799999999999 0.5349577
1.08899999999999 0.5787285
1.08999999999999 0.6327983
1.09099999999999 0.6739944
1.09199999999999 0.7602486
1.09299999999999 0.8542271
1.09399999999999 0.9057222
1.09499999999999 0.9379066
1.09599999999999 1.049908
1.09699999999999 1.000988
1.09799999999999 1.038322
1.09899999999999 0.9868269
1.09999999999999 0.9224581
1.10099999999999 0.9301823
1.10199999999999 0.8593766
1.10299999999999 0.8104563
1.10399999999999 0.6945924
1.10499999999999 0.6521089
1.10599999999999 0.6533963
1.10699999999999 0.6070508
1.10799999999999 0.6006139
1.10899999999999 0.6212119
1.10999999999999 0.7177652
1.11099999999999 0.7280642
1.11199999999999 0.8117437
1.11299999999999 0.9134464
1.11399999999999 0.9636541
1.11499999999999 1.028023
1.11599999999999 1.1323
1.11699999999999 1.141312
1.11799999999999 1.057633
1.11899999999999 1.073081
1.11999999999999 1.05377
1.12099999999999 0.9932638
1.12199999999999 0.939194
1.12299999999999 0.8568019
1.12399999999999 0.8001573
1.12499999999999 0.7731224
1.12599999999999 0.6662701
1.12699999999999 0.7061788
1.12799999999999 0.6765691
1.12899999999999 0.6958798
1.12999999999999 0.7602486
1.13099999999999 0.8001573
1.13199999999999 0.9005727
1.13299999999999 1.025448
1.13399999999999 1.047334
1.13499999999999 1.080805
1.13599999999999 1.149036
1.13699999999999 1.172209
1.13799999999999 1.18637
1.13899999999999 1.123289
1.13999999999999 1.066644
1.14099999999999 1.06407
1.14199999999999 1.048621
1.14299999999998 0.9520677
1.14399999999998 0.8413533
1.14499999999998 0.7769845
1.14599999999998 0.7383632
1.14699999999998 0.7203399
1.14799999999998 0.7229147
1.14899999999998 0.7473748
1.14999999999998 0.8233301
1.15099999999998 0.9211707
1.15199999999998 0.98039
1.15299999999998 1.042184
1.15399999999998 1.102691
1.15499999999998 1.154186
1.15599999999998 1.164485
1.15699999999998 1.185083
1.15799999999998 1.223704
1.15899999999998 1.241727
1.15999999999998 1.197957
1.16099999999998 1.100116
1.16199999999998 1.046046
1.16299999999998 1.02931
1.16399999999998 0.891561
1.16499999999998 0.9005727
1.16599999999998 0.7911456
1.16699999999998 0.7525243
1.16799999999998 0.792433
1.16899999999998 0.7962951
1.16999999999998 0.8979979
1.17099999999998 0.9765279
1.17199999999998 0.9984133
1.17299999999998 1.057633
1.17399999999998 1.154186
1.17499999999998 1.145174
1.17599999999998 1.257176
1.17699999999998 1.219842
1.17799999999998 1.200531
1.17899999999998 1.154186
1.17999999999998 1.074369
1.18099999999998 1.098829
1.18199999999998 1.039609
1.18299999999998 0.8992853
1.18399999999998 0.8040194
1.18499999999998 0.761536
1.18599999999998 0.7538117
1.18699999999998 0.7216273
1.18799999999998 0.6688448
1.18899999999998 0.713903
1.18999999999998 0.7151904
1.19099999999998 0.8091689
1.19199999999998 0.8748251
1.19299999999998 0.870963
1.19399999999998 0.9739531
1.19499999999998 1.030598
1.19599999999998 1.011287
1.19699999999998 1.033172
1.19799999999998 1.046046
1.19899999999998 0.9456308
1.19999999999998 0.8838368
1.20099999999998 0.8349164
1.20199999999998 0.7756971
1.20299999999998 0.7254894
1.20399999999998 0.6430973
1.20499999999998 0.5658547
1.20599999999998 0.4808878
1.20699999999998 0.474451
1.20799999999998 0.4628646
1.20899999999998 0.4770257
1.20999999999998 0.4911869
1.21099999999998 0.5607052
1.21199999999998 0.6327983
1.21299999999998 0.6636953
1.21399999999998 0.7319263
1.21499999999998 0.7988699
1.21599999999998 0.8799746
1.21699999999998 0.8194679
1.21799999999998 0.7988699
1.21899999999998 0.7525243
1.21999999999998 0.7950078
1.22099999999998 0.662408
1.22199999999998 0.6804312
1.22299999999998 0.5607052
1.22399999999998 0.4886121
1.22499999999998 0.426818
1.22599999999998 0.3637366
1.22699999999998 0.3508628
1.22799999999998 0.3585871
1.22899999999998 0.3766103
1.22999999999998 0.40622
1.23099999999998 0.4731636
1.23199999999998 0.5375324
1.23299999999998 0.6122003
1.23399999999997 0.7370758
1.23499999999997 0.7847088
1.23599999999997 0.7795592
1.23699999999997 0.8053068
1.23799999999997 0.7744097
1.23899999999997 0.761536
1.23999999999997 0.7576738
1.24099999999997 0.6984545
1.24199999999997 0.6392352
1.24299999999997 0.5233713
1.24399999999997 0.4654393
1.24499999999997 0.4075074
1.24599999999997 0.3547249
1.24699999999997 0.3225405
1.24799999999997 0.3650239
1.24899999999997 0.3804725
1.24999999999997 0.4010705
1.25099999999997 0.4860373
1.25199999999997 0.5568431
1.25299999999997 0.6276488
1.25399999999997 0.662408
1.25499999999997 0.7332137
1.25599999999997 0.8091689
1.25699999999997 0.7847088
1.25799999999997 0.7653981
1.25899999999997 0.7705476
1.25999999999997 0.7383632
1.26099999999997 0.672707
1.26199999999997 0.6559711
1.26299999999997 0.5388198
1.26399999999997 0.4757383
1.26499999999997 0.4525656
1.26599999999997 0.3534375
1.26699999999997 0.3457133
1.26799999999997 0.395921
1.26899999999997 0.3572997
1.26999999999997 0.4577151
1.27099999999997 0.4654393
1.27199999999997 0.5568431
1.27299999999997 0.6302235
1.27399999999997 0.6971671
1.27499999999997 0.7885709
1.27599999999997 0.7847088
1.27699999999997 0.7975825
1.27799999999997 0.8516523
1.27899999999997 0.7988699
1.27999999999997 0.7769845
1.28099999999997 0.6817186
1.28199999999997 0.6212119
1.28299999999997 0.6160624
1.28399999999997 0.48475
1.28499999999997 0.4499908
1.28599999999997 0.3804725
1.28699999999997 0.4100821
1.28799999999997 0.3894841
1.28899999999997 0.3817598
1.28999999999997 0.4834626
1.29099999999997 0.5426819
1.29199999999997 0.5748663
1.29299999999997 0.7087535
1.29399999999997 0.703604
1.29499999999997 0.802732
1.29599999999997 0.8065942
1.29699999999997 0.860664
1.29799999999997 0.8143184
1.29899999999997 0.7808466
1.29999999999997 0.7550991
1.30099999999997 0.7460875
1.30199999999997 0.6199245
1.30299999999997 0.604476
1.30399999999997 0.4860373
1.30499999999997 0.4422665
1.30599999999997 0.4190938
1.30699999999997 0.3585871
1.30799999999997 0.3624492
1.30899999999997 0.3817598
1.30999999999997 0.4924742
1.31099999999997 0.5465441
1.31199999999997 0.6276488
1.31299999999997 0.6495342
1.31399999999997 0.7473748
1.31499999999997 0.7435127
1.31599999999997 0.813031
1.31699999999997 0.8156058
1.31799999999997 0.8426407
1.31899999999997 0.782134
1.31999999999997 0.7705476
1.32099999999997 0.683006
1.32199999999997 0.6598332
1.32299999999997 0.573579
1.32399999999997 0.5697168
1.32499999999996 0.5092101
1.32599999999996 0.3946336
1.32699999999996 0.3624492
1.32799999999996 0.3997831
1.32899999999996 0.3984957
1.32999999999996 0.5104975
1.33099999999996 0.5233713
1.33199999999996 0.6160624
1.33299999999996 0.7383632
1.33399999999996 0.7293516
1.33499999999996 0.8297669
1.33599999999996 0.8748251
1.33699999999996 0.9082969
1.33799999999996 0.8439281
1.33899999999996 0.8181805
1.33999999999996 0.7602486
1.34099999999996 0.7203399
1.34199999999996 0.6752817
1.34299999999996 0.6495342
1.34399999999996 0.5182218
1.34499999999996 0.4705888
1.34599999999996 0.4010705
1.34699999999996 0.4384044
1.34799999999996 0.4667267
1.34899999999996 0.4796005
1.34999999999996 0.4590024
1.35099999999996 0.583878
1.35199999999996 0.6173498
1.35299999999996 0.7306389
1.35399999999996 0.7319263
1.35499999999996 0.8413533
1.35599999999996 0.8220427
1.35699999999996 0.8336291
1.35799999999996 0.8117437
1.35899999999996 0.8181805
1.35999999999996 0.8271922
1.36099999999996 0.7061788
1.36199999999996 0.6855807
1.36299999999996 0.5774411
1.36399999999996 0.5349577
1.36499999999996 0.4564277
1.36599999999996 0.4010705
1.36699999999996 0.3830472
1.36799999999996 0.4435539
1.36899999999996 0.4036452
1.36999999999996 0.4461287
1.37099999999996 0.5092101
1.37199999999996 0.5813032
1.37299999999996 0.7164778
1.37399999999996 0.7164778
1.37499999999996 0.8362038
1.37599999999996 0.8876989
1.37699999999996 0.8336291
1.37799999999996 0.8452155
1.37899999999996 0.813031
1.37999999999996 0.7962951
1.38099999999996 0.7126157
1.38199999999996 0.6611206
1.38299999999996 0.5722916
1.38399999999996 0.5298082
1.38499999999996 0.4628646
1.38599999999996 0.3984957
1.38699999999996 0.4487034
1.38799999999996 0.3894841
1.38899999999996 0.4242433
1.38999999999996 0.515647
1.39099999999996 0.5310955
1.39199999999996 0.5967517
1.39299999999996 0.7229147
1.39399999999996 0.751237
1.39499999999996 0.7937204
1.39599999999996 0.8992853
1.39699999999996 0.8246174
1.39799999999996 0.870963
1.39899999999996 0.850365
1.39999999999996 0.7834214
1.40099999999996 0.7795592
1.40199999999996 0.6739944
1.40299999999996 0.6508216
1.40399999999996 0.536245
1.40499999999996 0.4577151
1.40599999999996 0.4049326
1.40699999999996 0.3933462
1.40799999999996 0.437117
1.40899999999996 0.437117
1.40999999999996 0.4641519
1.41099999999996 0.5748663
1.41199999999996 0.5967517
1.41299999999996 0.6714196
1.41399999999996 0.7293516
1.41499999999996 0.8297669
1.41599999999995 0.8889863
1.41699999999995 0.8207553
1.41799999999995 0.8954232
1.41899999999995 0.7937204
1.41999999999995 0.8349164
1.42099999999995 0.7911456
1.42199999999995 0.6572585
1.42299999999995 0.6443847
1.42399999999995 0.5298082
1.42499999999995 0.4821752
1.42599999999995 0.4551403
1.42699999999995 0.40622
1.42799999999995 0.40622
1.42899999999995 0.4693015
1.42999999999995 0.5027732
1.43099999999995 0.5298082
1.43199999999995 0.614775
1.43299999999995 0.6585458
1.43399999999995 0.7177652
1.43499999999995 0.7769845
1.43599999999995 0.8220427
1.43699999999995 0.8413533
1.43799999999995 0.8593766
1.43899999999995 0.8259048
1.43999999999995 0.7885709
1.44099999999995 0.724202
1.44199999999995 0.7023166
1.44299999999995 0.594177
1.44399999999995 0.5825906
1.44499999999995 0.5195091
1.44599999999995 0.4319675
1.44699999999995 0.4487034
1.44799999999995 0.40622
1.44899999999995 0.447416
1.44999999999995 0.4564277
1.45099999999995 0.594177
1.45199999999995 0.5980391
1.45299999999995 0.6945924
1.45399999999995 0.7911456
1.45499999999995 0.8426407
1.45599999999995 0.8773999
1.45699999999995 0.8413533
1.45799999999995 0.8297669
1.45899999999995 0.8761125
1.45999999999995 0.8349164
1.46099999999995 0.7048914
1.46199999999995 0.6920176
1.46299999999995 0.5722916
1.46399999999995 0.5439693
1.46499999999995 0.4538529
1.46599999999995 0.4577151
1.46699999999995 0.4075074
1.46799999999995 0.4770257
1.46899999999995 0.4448413
1.46999999999995 0.4615772
1.47099999999995 0.5336703
1.47199999999995 0.5967517
1.47299999999995 0.6739944
1.47399999999995 0.7872835
1.47499999999995 0.850365
1.47599999999995 0.8490776
1.47699999999995 0.8477902
1.47799999999995 0.90186
1.47899999999995 0.8619514
1.47999999999995 0.7885709
1.48099999999995 0.7396506
1.48199999999995 0.6920176
1.48299999999995 0.6070508
1.48399999999995 0.5658547
1.48499999999995 0.48475
1.48599999999995 0.4139443
1.48699999999995 0.4396918
1.48799999999995 0.4525656
1.48899999999995 0.4190938
1.48999999999995 0.48475
1.49099999999995 0.5980391
1.49199999999995 0.6096255
1.49299999999995 0.6855807
1.49399999999995 0.7499496
1.49499999999995 0.7988699
1.49599999999995 0.8465028
1.49699999999995 0.9095843
1.49799999999995 0.860664
1.49899999999995 0.8632387
1.49999999999995 0.8078815
1.50099999999995 0.7345011
1.50199999999995 0.6752817
1.50299999999995 0.6482468
1.50399999999995 0.583878
1.50499999999995 0.5207965
1.50599999999994 0.4821752
1.50699999999994 0.4409792
1.50799999999994 0.426818
1.50899999999994 0.4834626
1.50999999999994 0.5272334
1.51099999999994 0.5323829
1.51199999999994 0.6714196
1.51299999999994 0.6920176
1.51399999999994 0.7847088
1.51499999999994 0.813031
1.51599999999994 0.8658135
1.51699999999994 0.8799746
1.51799999999994 0.8516523
1.51899999999994 0.8851241
1.51999999999994 0.8014447
1.52099999999994 0.761536
1.52199999999994 0.683006
1.52299999999994 0.6224993
1.52399999999994 0.56328
1.52499999999994 0.48475
1.52599999999994 0.4886121
1.52699999999994 0.4667267
1.52799999999994 0.4255306
1.52899999999994 0.4976237
1.52999999999994 0.4963364
1.53099999999994 0.5439693
1.53199999999994 0.6160624
1.53299999999994 0.724202
1.53399999999994 0.8310543
1.53499999999994 0.8040194
1.53599999999994 0.8696756
1.53699999999994 0.9301823
1.53799999999994 0.8864115
1.53899999999994 0.8362038
1.53999999999994 0.8349164
1.54099999999994 0.7679729
1.54199999999994 0.7525243
1.54299999999994 0.6289362
1.54399999999994 0.5722916
1.54499999999994 0.5323829
1.54599999999994 0.4693015
1.54699999999994 0.4461287
1.54799999999994 0.4873247
1.54899999999994 0.4808878
1.54999999999994 0.4963364
1.55099999999994 0.5658547
1.55199999999994 0.6224993
1.55299999999994 0.7422253
1.55399999999994 0.7563865
1.55499999999994 0.8284796
1.55599999999994 0.8773999
1.55699999999994 0.8941358
1.55799999999994 0.8465028
1.55899999999994 0.891561
1.55999999999994 0.870963
1.56099999999994 0.7679729
1.56199999999994 0.6997419
1.56299999999994 0.6263614
1.56399999999994 0.5825906
1.56499999999994 0.5619926
1.56599999999994 0.4461287
1.56699999999994 0.4345423
1.56799999999994 0.4705888
1.56899999999994 0.4873247
1.56999999999994 0.5594178
1.57099999999994 0.5813032
1.57199999999994 0.662408
1.57299999999994 0.7435127
1.57399999999994 0.8014447
1.57499999999994 0.8671009
1.57599999999994 0.8992853
1.57699999999994 0.9314697
1.57799999999994 1.026736
1.57899999999994 0.9765279
1.57999999999994 0.9482056
1.58099999999994 0.840066
1.58199999999994 0.8555145
1.58299999999994 0.7744097
1.58399999999994 0.6405226
1.58499999999994 0.5813032
1.58599999999994 0.536245
1.58699999999994 0.5130723
1.58799999999994 0.536245
1.58899999999994 0.5195091
1.58999999999994 0.5787285
1.59099999999994 0.6353731
1.59199999999994 0.7396506
1.59299999999994 0.8181805
1.59399999999994 0.8979979
1.59499999999994 0.9366192
1.59599999999994 0.9675163
1.59699999999993 0.9546425
1.59799999999993 0.9520677
1.59899999999993 0.9585046
1.59999999999993 0.9868269
1.60099999999993 0.8954232
1.60199999999993 0.8632387
1.60299999999993 0.7306389
1.60399999999993 0.6701322
1.60499999999993 0.6714196
1.60599999999993 0.6186372
1.60699999999993 0.5967517
1.60799999999993 0.5851654
1.60899999999993 0.5813032
1.60999999999993 0.6418099
1.61099999999993 0.7795592
1.61199999999993 0.8001573
1.61299999999993 0.9482056
1.61399999999993 0.9559299
1.61499999999993 1.017724
1.61599999999993 1.085955
1.61699999999993 1.075656
1.61799999999993 1.05892
1.61899999999993 1.038322
1.61999999999993 0.9688036
1.62099999999993 0.9095843
1.62199999999993 0.8374912
1.62299999999993 0.7460875
1.62399999999993 0.7023166
1.62499999999993 0.693305
1.62599999999993 0.5800159
1.62699999999993 0.5761537
1.62799999999993 0.5542683
1.62899999999993 0.5684295
1.62999999999993 0.6019013
1.63099999999993 0.6675575
1.63199999999993 0.7872835
1.63299999999993 0.8117437
1.63399999999993 0.9057222
1.63499999999993 0.9160212
1.63599999999993 0.9739531
1.63699999999993 0.9572172
1.63799999999993 0.9971259
1.63899999999993 0.9469182
1.63999999999993 0.8696756
1.64099999999993 0.8696756
1.64199999999993 0.7499496
1.64299999999993 0.6778565
1.64399999999993 0.6521089
1.64499999999993 0.5272334
1.64599999999993 0.5246587
1.64699999999993 0.4924742
1.64799999999993 0.5027732
1.64899999999993 0.4615772
1.64999999999993 0.5104975
1.65099999999993 0.5722916
1.65199999999993 0.6443847
1.65299999999993 0.6945924
1.65399999999993 0.7602486
1.65499999999993 0.8748251
1.65599999999993 0.891561
1.65699999999993 0.8735377
1.65799999999993 0.8619514
1.65899999999993 0.8748251
1.65999999999993 0.8091689
1.66099999999993 0.8104563
1.66199999999993 0.6791439
1.66299999999993 0.6186372
1.66399999999993 0.515647
1.66499999999993 0.474451
1.66599999999993 0.395921
1.66699999999993 0.3714608
1.66799999999993 0.395921
1.66899999999993 0.4499908
1.66999999999993 0.4577151
1.67099999999993 0.5388198
1.67199999999993 0.5903149
1.67299999999993 0.7319263
1.67399999999993 0.724202
1.67499999999993 0.7705476
1.67599999999993 0.8387786
1.67699999999993 0.8452155
1.67799999999993 0.8271922
1.67899999999993 0.8194679
1.67999999999993 0.7769845
1.68099999999993 0.7190525
1.68199999999993 0.6945924
1.68299999999993 0.56328
1.68399999999993 0.5684295
1.68499999999993 0.474451
1.68599999999993 0.3766103
1.68699999999993 0.348288
1.68799999999992 0.4075074
1.68899999999992 0.3920588
1.68999999999992 0.4615772
1.69099999999992 0.4886121
1.69199999999992 0.5594178
1.69299999999992 0.6495342
1.69399999999992 0.7280642
1.69499999999992 0.7898583
1.69599999999992 0.8143184
1.69699999999992 0.8323417
1.69799999999992 0.881262
1.69899999999992 0.8580892
1.69999999999992 0.7602486
1.70099999999992 0.7744097
1.70199999999992 0.6958798
1.70299999999992 0.5697168
1.70399999999992 0.5722916
1.70499999999992 0.4937616
1.70599999999992 0.3933462
1.70699999999992 0.3881967
1.70799999999992 0.3894841
1.70899999999992 0.4615772
1.70999999999992 0.4512782
1.71099999999992 0.5697168
1.71199999999992 0.6443847
1.71299999999992 0.7306389
1.71399999999992 0.7074661
1.71499999999992 0.7769845
1.71599999999992 0.8297669
1.71699999999992 0.8967105
1.71799999999992 0.8426407
1.71899999999992 0.8619514
1.71999999999992 0.8284796
1.72099999999992 0.7563865
1.72199999999992 0.6379478
1.72299999999992 0.6083381
1.72399999999992 0.495049
1.72499999999992 0.4693015
1.72599999999992 0.4255306
1.72699999999992 0.4100821
1.72799999999992 0.4628646
1.72899999999992 0.4821752
1.72999999999992 0.474451
1.73099999999992 0.5916022
1.73199999999992 0.6559711
1.73299999999992 0.6971671
1.73399999999992 0.7435127
1.73499999999992 0.8542271
1.73599999999992 0.8864115
1.73699999999992 0.8477902
1.73799999999992 0.8580892
1.73899999999992 0.8349164
1.73999999999992 0.8040194
1.74099999999992 0.7267768
1.74199999999992 0.6662701
1.74299999999992 0.6031886
1.74399999999992 0.5619926
1.74499999999992 0.5104975
1.74599999999992 0.4783131
1.74699999999992 0.4718762
1.74799999999992 0.5014859
1.74899999999992 0.5207965
1.74999999999992 0.6109129
1.75099999999992 0.7010293
1.75199999999992 0.751237
1.75299999999992 0.802732
1.75399999999992 0.8992853
1.75499999999992 0.9816774
1.75599999999992 1.084668
1.75699999999992 1.160623
1.75799999999992 1.195382
1.75899999999992 1.258463
1.75999999999992 1.254601
1.76099999999992 1.34858
1.76199999999992 1.284211
1.76299999999992 1.32412
1.76399999999992 1.464444
1.76499999999992 1.455432
1.76599999999992 1.517226
1.76699999999992 1.590607
1.76799999999992 1.630515
1.76899999999992 1.714195
1.76999999999992 1.748954
1.77099999999992 1.822334
1.77199999999992 1.866105
1.77299999999992 1.927899
1.77399999999992 1.876404
1.77499999999992 1.846795
1.77599999999992 1.857094
1.77699999999992 1.774701
1.77799999999992 1.709045
1.77899999999991 1.612492
1.77999999999991 1.436121
1.78099999999991 1.339568
1.78199999999991 1.192807
1.78299999999991 1.002275
1.78399999999991 0.7859961
1.78499999999991 0.6508216
1.78599999999991 0.5246587
1.78699999999991 0.4731636
1.78799999999991 0.4499908
1.78899999999991 0.416519
1.78999999999991 0.437117
1.79099999999991 0.4808878
1.79199999999991 0.5478314
1.79299999999991 0.6418099
1.79399999999991 0.6559711
1.79499999999991 0.7254894
1.79599999999991 0.8104563
1.79699999999991 0.7782719
1.79799999999991 0.7628233
1.79899999999991 0.8271922
1.79999999999991 0.7602486
1.80099999999991 0.7061788
1.80199999999991 0.6109129
1.80299999999991 0.5388198
1.80399999999991 0.5542683
1.80499999999991 0.4654393
1.80599999999991 0.4242433
1.80699999999991 0.3907715
1.80799999999991 0.4242433
1.80899999999991 0.4731636
1.80999999999991 0.4886121
1.81099999999991 0.525946
1.81199999999991 0.5993265
1.81299999999991 0.6920176
1.81399999999991 0.7692602
1.81499999999991 0.8143184
1.81599999999991 0.8876989
1.81699999999991 0.870963
1.81799999999991 0.840066
1.81899999999991 0.8207553
1.81999999999991 0.8156058
1.82099999999991 0.7306389
1.82199999999991 0.6907303
1.82299999999991 0.56328
1.82399999999991 0.5285208
1.82499999999991 0.4551403
1.82599999999991 0.4075074
1.82699999999991 0.4487034
1.82799999999991 0.4126569
1.82899999999991 0.4113695
1.82999999999991 0.4448413
1.83099999999991 0.5800159
1.83199999999991 0.6456721
1.83299999999991 0.7203399
1.83399999999991 0.7486622
1.83499999999991 0.7795592
1.83599999999991 0.8362038
1.83699999999991 0.8876989
1.83799999999991 0.891561
1.83899999999991 0.870963
1.83999999999991 0.7692602
1.84099999999991 0.7113283
1.84199999999991 0.6997419
1.84299999999991 0.5697168
1.84399999999991 0.5001985
1.84499999999991 0.4796005
1.84599999999991 0.4551403
1.84699999999991 0.4487034
1.84799999999991 0.4577151
1.84899999999991 0.4087947
1.84999999999991 0.4615772
1.85099999999991 0.5452567
1.85199999999991 0.5954644
1.85299999999991 0.6739944
1.85399999999991 0.7653981
1.85499999999991 0.8168932
1.85599999999991 0.8452155
1.85699999999991 0.8516523
1.85799999999991 0.8696756
1.85899999999991 0.8284796
1.85999999999991 0.8143184
1.86099999999991 0.7898583
1.86199999999991 0.7023166
1.86299999999991 0.6199245
1.86399999999991 0.5619926
1.86499999999991 0.4937616
1.86599999999991 0.4783131
1.86699999999991 0.4577151
1.86799999999991 0.447416
1.86899999999991 0.4190938
1.8699999999999 0.474451
1.8709999999999 0.5452567
1.8719999999999 0.6057634
1.8729999999999 0.7229147
1.8739999999999 0.7486622
1.8749999999999 0.7962951
1.8759999999999 0.8452155
1.8769999999999 0.8851241
1.8779999999999 0.8954232
1.8789999999999 0.8825494
1.8799999999999 0.8259048
1.8809999999999 0.751237
1.8819999999999 0.693305
1.8829999999999 0.6302235
1.8839999999999 0.573579
1.8849999999999 0.5349577
1.8859999999999 0.4667267
1.8869999999999 0.4796005
1.8879999999999 0.4963364
1.8889999999999 0.5104975
1.8899999999999 0.5195091
1.8909999999999 0.5697168
1.8919999999999 0.6430973
1.8929999999999 0.7190525
1.8939999999999 0.7769845
1.8949999999999 0.8799746
1.8959999999999 0.8979979
1.8969999999999 0.9417687
1.8979999999999 0.949493
1.8989999999999 0.9198833
1.8999999999999 0.8979979
1.9009999999999 0.8078815
1.9019999999999 0.6842934
1.9029999999999 0.6031886
1.9039999999999 0.5426819
1.9049999999999 0.573579
1.9059999999999 0.5079228
1.9069999999999 0.437117
1.9079999999999 0.447416
1.9089999999999 0.4886121
1.9099999999999 0.5555557
1.9109999999999 0.6186372
1.9119999999999 0.6289362
1.9129999999999 0.7267768
1.9139999999999 0.771835
1.9149999999999 0.8271922
1.9159999999999 0.8632387
1.9169999999999 0.9082969
1.9179999999999 0.9546425
1.9189999999999 0.8967105
1.9199999999999 0.8928484
1.9209999999999 0.7525243
1.9219999999999 0.6971671
1.9229999999999 0.6070508
1.9239999999999 0.5594178
1.9249999999999 0.5607052
1.9259999999999 0.5027732
1.9269999999999 0.4641519
1.9279999999999 0.4770257
1.9289999999999 0.5401072
1.9299999999999 0.5169344
1.9309999999999 0.5787285
1.9319999999999 0.6598332
1.9329999999999 0.7435127
1.9339999999999 0.870963
1.9349999999999 0.9211707
1.9359999999999 0.9713784
1.9369999999999 0.970091
1.9379999999999 0.9340445
1.9389999999999 0.9778153
1.9399999999999 0.9288949
1.9409999999999 0.8040194
1.9419999999999 0.7795592
1.9429999999999 0.6714196
1.9439999999999 0.6752817
1.9449999999999 0.5761537
1.9459999999999 0.5130723
1.9469999999999 0.5439693
1.9479999999999 0.5207965
1.9489999999999 0.5169344
1.9499999999999 0.5581304
1.9509999999999 0.6894429
1.9519999999999 0.7216273
1.9529999999999 0.8207553
1.9539999999999 0.8555145
1.9549999999999 0.9185959
1.9559999999999 1.037035
1.9569999999999 1.017724
1.9579999999999 0.9881143
1.9589999999999 0.9739531
1.95999999999989 0.9147338
1.96099999999989 0.9185959
1.96199999999989 0.8220427
1.96299999999989 0.7576738
1.96399999999989 0.7010293
1.96499999999989 0.604476
1.96599999999989 0.5529809
1.96699999999989 0.5233713
1.96799999999989 0.5426819
1.96899999999989 0.5890275
1.96999999999989 0.6302235
1.97099999999989 0.7048914
1.97199999999989 0.7872835
1.97299999999989 0.8349164
1.97399999999989 0.8838368
1.97499999999989 0.9417687
1.97599999999989 1.070506
1.97699999999989 1.01
1.97799999999989 1.076943
1.97899999999989 1.038322
1.97999999999989 0.990689
1.98099999999989 0.9250328
1.98199999999989 0.8336291
1.98299999999989 0.7576738
1.98399999999989 0.7602486
1.98499999999989 0.7151904
1.98599999999989 0.672707
1.98699999999989 0.6070508
1.98799999999989 0.6353731
1.98899999999989 0.6894429
1.98999999999989 0.6817186
1.99099999999989 0.7538117
1.99199999999989 0.8233301
1.99299999999989 0.9404813
1.99399999999989 1.039609
1.99499999999989 1.10784
1.99599999999989 1.106553
1.99699999999989 1.102691
1.99799999999989 1.133588
1.99899999999989 1.168347
1.99999999999989 1.128438
2.00099999999989 1.048621
2.00199999999989 0.9945512
2.00299999999989 0.8722504
2.00399999999989 0.8078815
2.00499999999989 0.7448001
2.00599999999989 0.693305
2.00699999999989 0.7074661
2.00799999999989 0.7164778
2.00899999999989 0.7280642
2.00999999999989 0.771835
2.01099999999989 0.8349164
2.01199999999989 0.9147338
2.01299999999989 1.021586
2.01399999999989 1.026736
2.01499999999989 1.111702
2.01599999999989 1.146462
2.01699999999989 1.201819
2.01799999999989 1.21598
2.01899999999989 1.16706
2.01999999999989 1.152899
2.02099999999989 1.055058
2.02199999999989 0.9881143
2.02299999999989 0.8799746
2.02399999999989 0.8259048
2.02499999999989 0.771835
2.02599999999989 0.7460875
2.02699999999989 0.8078815
2.02799999999989 0.7473748
2.02899999999989 0.7576738
2.02999999999989 0.8053068
2.03099999999989 0.9095843
2.03199999999989 0.9610794
2.03299999999989 1.031885
2.03399999999989 1.119427
2.03499999999989 1.133588
2.03599999999989 1.231428
2.03699999999989 1.176071
2.03799999999989 1.169634
2.03899999999989 1.179933
2.03999999999989 1.160623
2.04099999999989 1.128438
2.04199999999989 0.9559299
2.04299999999989 0.9198833
2.04399999999989 0.8658135
2.04499999999989 0.7782719
2.04599999999989 0.7538117
2.04699999999989 0.7473748
2.04799999999989 0.7911456
2.04899999999989 0.7937204
2.04999999999989 0.8271922
2.05099999999989 0.8053068
2.05199999999989 0.9456308
2.05299999999988 1.033172
2.05399999999988 0.9868269
2.05499999999988 1.062782
2.05599999999988 1.136163
2.05699999999988 1.115565
2.05799999999988 1.138737
2.05899999999988 1.048621
2.05999999999988 0.9997007
2.06099999999988 0.9829648
2.06199999999988 0.8580892
2.06299999999988 0.7074661
2.06399999999988 0.6508216
2.06499999999988 0.604476
2.06599999999988 0.5349577
2.06699999999988 0.5207965
2.06799999999988 0.5413945
2.06899999999988 0.5169344
2.06999999999988 0.5388198
2.07099999999988 0.6057634
2.07199999999988 0.7422253
2.07299999999988 0.7435127
2.07399999999988 0.7731224
2.07499999999988 0.850365
2.07599999999988 0.8876989
2.07699999999988 0.8889863
2.07799999999988 0.8542271
2.07899999999988 0.8954232
2.07999999999988 0.8284796
2.08099999999988 0.771835
2.08199999999988 0.6263614
2.08299999999988 0.5298082
2.08399999999988 0.4693015
2.08499999999988 0.4178064
2.08599999999988 0.4113695
2.08699999999988 0.3817598
2.08799999999988 0.3637366
2.08899999999988 0.3637366
2.08999999999988 0.40622
2.09099999999988 0.4796005
2.09199999999988 0.536245
2.09299999999988 0.6031886
2.09399999999988 0.7280642
2.09499999999988 0.7769845
2.09599999999988 0.8233301
2.09699999999988 0.8336291
2.09799999999988 0.7859961
2.09899999999988 0.8065942
2.09999999999988 0.7332137
2.10099999999988 0.6598332
2.10199999999988 0.5542683
2.10299999999988 0.4628646
2.10399999999988 0.4448413
2.10499999999988 0.3650239
2.10599999999988 0.3328395
2.10699999999988 0.3006551
2.10799999999988 0.317391
2.10899999999988 0.3946336
2.10999999999988 0.3650239
2.11099999999988 0.4384044
2.11199999999988 0.5066354
2.11299999999988 0.5967517
2.11399999999988 0.7023166
2.11499999999988 0.7653981
2.11599999999988 0.771835
2.11699999999988 0.7679729
2.11799999999988 0.7756971
2.11899999999988 0.7679729
2.11999999999988 0.7538117
2.12099999999988 0.6649827
2.12199999999988 0.5710042
2.12299999999988 0.4796005
2.12399999999988 0.4409792
2.12499999999988 0.3547249
2.12599999999988 0.3225405
2.12699999999988 0.3006551
2.12799999999988 0.32769
2.12899999999988 0.3624492
2.12999999999988 0.3946336
2.13099999999988 0.4396918
2.13199999999988 0.5452567
2.13299999999988 0.5903149
2.13399999999988 0.7267768
2.13499999999988 0.7795592
2.13599999999988 0.7731224
2.13699999999988 0.7898583
2.13799999999988 0.782134
2.13899999999988 0.7859961
2.13999999999988 0.7151904
2.14099999999988 0.7164778
2.14199999999988 0.5658547
2.14299999999988 0.4667267
2.14399999999987 0.4100821
2.14499999999987 0.3688861
2.14599999999987 0.3418512
2.14699999999987 0.3212531
2.14799999999987 0.3572997
2.14899999999987 0.385622
2.14999999999987 0.3881967
2.15099999999987 0.4731636
2.15199999999987 0.5877401
2.15299999999987 0.614775
2.15399999999987 0.6765691
2.15499999999987 0.7409379
2.15599999999987 0.8426407
2.15699999999987 0.7950078
2.15799999999987 0.7898583
2.15899999999987 0.7666855
2.15999999999987 0.7267768
2.16099999999987 0.6739944
2.16199999999987 0.5864527
2.16299999999987 0.5388198
2.16399999999987 0.4860373
2.16499999999987 0.4615772
2.16599999999987 0.3598744
2.16699999999987 0.3984957
2.16799999999987 0.3881967
2.16899999999987 0.3740356
2.16999999999987 0.4667267
2.17099999999987 0.4976237
2.17199999999987 0.5722916
2.17299999999987 0.6739944
2.17399999999987 0.7229147
2.17499999999987 0.7499496
2.17599999999987 0.7975825
2.17699999999987 0.8439281
2.17799999999987 0.8078815
2.17899999999987 0.850365
2.17999999999987 0.724202
2.18099999999987 0.6443847
2.18199999999987 0.5542683
2.18299999999987 0.495049
2.18399999999987 0.4808878
2.18499999999987 0.4345423
2.18599999999987 0.3367016
2.18699999999987 0.3663113
2.18799999999987 0.3701734
2.18899999999987 0.3508628
2.18999999999987 0.3881967
2.19099999999987 0.4512782
2.19199999999987 0.5323829
2.19299999999987 0.6353731
2.19399999999987 0.6804312
2.19499999999987 0.7345011
2.19599999999987 0.7782719
2.19699999999987 0.8040194
2.19799999999987 0.8014447
2.19899999999987 0.8284796
2.19999999999987 0.7744097
2.20099999999987 0.6817186
2.20199999999987 0.6109129
2.20299999999987 0.5285208
2.20399999999987 0.4551403
2.20499999999987 0.3907715
2.20599999999987 0.3869093
2.20699999999987 0.3508628
2.20799999999987 0.348288
2.20899999999987 0.3585871
2.20999999999987 0.416519
2.21099999999987 0.4796005
2.21199999999987 0.5491188
2.21299999999987 0.6907303
2.21399999999987 0.7190525
2.21499999999987 0.7448001
2.21599999999987 0.8014447
2.21699999999987 0.8761125
2.21799999999987 0.8168932
2.21899999999987 0.7859961
2.21999999999987 0.7538117
2.22099999999987 0.7216273
2.22199999999987 0.5890275
2.22299999999987 0.5130723
2.22399999999987 0.4499908
2.22499999999987 0.3997831
2.22599999999987 0.4113695
2.22699999999987 0.3534375
2.22799999999987 0.416519
2.22899999999987 0.4319675
2.22999999999987 0.416519
2.23099999999987 0.4808878
2.23199999999987 0.6134876
2.23299999999987 0.7074661
2.23399999999987 0.7048914
2.23499999999986 0.7679729
2.23599999999986 0.8555145
2.23699999999986 0.8156058
2.23799999999986 0.8323417
2.23899999999986 0.8156058
2.23999999999986 0.7448001
2.24099999999986 0.6778565
2.24199999999986 0.5993265
2.24299999999986 0.5310955
2.24399999999986 0.4448413
2.24499999999986 0.4435539
2.24599999999986 0.3508628
2.24699999999986 0.3470007
2.24799999999986 0.3637366
2.24899999999986 0.426818
2.24999999999986 0.4615772
2.25099999999986 0.4860373
2.25199999999986 0.5594178
2.25299999999986 0.6443847
2.25399999999986 0.6907303
2.25499999999986 0.8207553
2.25599999999986 0.8117437
2.25699999999986 0.840066
2.25799999999986 0.8799746
2.25899999999986 0.840066
2.25999999999986 0.7293516
2.26099999999986 0.7448001
2.26199999999986 0.6585458
2.26299999999986 0.5555557
2.26399999999986 0.4911869
2.26499999999986 0.4615772
2.26599999999986 0.3740356
2.26699999999986 0.4049326
2.26799999999986 0.3688861
2.26899999999986 0.4345423
2.26999999999986 0.4499908
2.27099999999986 0.5491188
2.27199999999986 0.594177
2.27299999999986 0.6714196
2.27399999999986 0.7448001
2.27499999999986 0.8156058
2.27599999999986 0.8078815
2.27699999999986 0.860664
2.27799999999986 0.8207553
2.27899999999986 0.8902736
2.27999999999986 0.7653981
2.28099999999986 0.7538117
2.28199999999986 0.6701322
2.28299999999986 0.5710042
2.28399999999986 0.4628646
2.28499999999986 0.4319675
2.28599999999986 0.3663113
2.28699999999986 0.3740356
2.28799999999986 0.4203811
2.28899999999986 0.3804725
2.28999999999986 0.4487034
2.29099999999986 0.5130723
2.29199999999986 0.594177
2.29299999999986 0.7203399
2.29399999999986 0.7563865
2.29499999999986 0.7744097
2.29599999999986 0.8825494
2.29699999999986 0.8156058
2.29799999999986 0.8156058
2.29899999999986 0.8194679
2.29999999999986 0.7898583
2.30099999999986 0.7345011
2.30199999999986 0.6456721
2.30299999999986 0.5001985
2.30399999999986 0.4551403
2.30499999999986 0.4538529
2.30599999999986 0.3675987
2.30699999999986 0.3714608
2.30799999999986 0.4396918
2.30899999999986 0.4281054
2.30999999999986 0.4487034
2.31099999999986 0.4898995
2.31199999999986 0.5671421
2.31299999999986 0.6688448
2.31399999999986 0.7872835
2.31499999999986 0.8233301
2.31599999999986 0.8786873
2.31699999999986 0.8233301
2.31799999999986 0.8954232
2.31899999999986 0.8529397
2.31999999999986 0.8181805
2.32099999999986 0.6958798
2.32199999999986 0.6186372
2.32299999999986 0.5143596
2.32399999999986 0.5066354
2.32499999999986 0.4448413
2.32599999999985 0.3920588
2.32699999999985 0.4178064
2.32799999999985 0.3894841
2.32899999999985 0.4023579
2.32999999999985 0.4989111
2.33099999999985 0.5813032
2.33199999999985 0.6327983
2.33299999999985 0.6752817
2.33399999999985 0.7937204
2.33499999999985 0.7744097
2.33599999999985 0.8683882
2.33699999999985 0.8683882
2.33799999999985 0.8568019
2.33899999999985 0.8773999
2.33999999999985 0.8104563
2.34099999999985 0.7795592
2.34199999999985 0.6289362
2.34299999999985 0.5246587
2.34399999999985 0.4808878
2.34499999999985 0.4615772
2.34599999999985 0.3830472
2.34699999999985 0.4100821
2.34799999999985 0.4100821
2.34899999999985 0.4332549
2.34999999999985 0.4886121
2.35099999999985 0.5130723
2.35199999999985 0.6006139
2.35299999999985 0.7100409
2.35399999999985 0.7538117
2.35499999999985 0.7679729
2.35599999999985 0.860664
2.35699999999985 0.8593766
2.35799999999985 0.8799746
2.35899999999985 0.8619514
2.35999999999985 0.8001573
2.36099999999985 0.7267768
2.36199999999985 0.625074
2.36299999999985 0.594177
2.36399999999985 0.5285208
2.36499999999985 0.4281054
2.36599999999985 0.4023579
2.36699999999985 0.4538529
2.36799999999985 0.4319675
2.36899999999985 0.4384044
2.36999999999985 0.4512782
2.37099999999985 0.5246587
2.37199999999985 0.5928896
2.37299999999985 0.7190525
2.37399999999985 0.7679729
2.37499999999985 0.7898583
2.37599999999985 0.8387786
2.37699999999985 0.9353318
2.37799999999985 0.9263202
2.37899999999985 0.881262
2.37999999999985 0.8632387
2.38099999999985 0.7602486
2.38199999999985 0.6276488
2.38299999999985 0.6019013
2.38399999999985 0.4796005
2.38499999999985 0.4937616
2.38599999999985 0.4487034
2.38699999999985 0.4113695
2.38799999999985 0.4564277
2.38899999999985 0.4306801
2.38999999999985 0.4693015
2.39099999999985 0.5890275
2.39199999999985 0.6173498
2.39299999999985 0.6907303
2.39399999999985 0.761536
2.39499999999985 0.8336291
2.39599999999985 0.8658135
2.39699999999985 0.8928484
2.39799999999985 0.881262
2.39899999999985 0.9134464
2.39999999999985 0.8143184
2.40099999999985 0.7988699
2.40199999999985 0.6521089
2.40299999999985 0.583878
2.40399999999985 0.5182218
2.40499999999985 0.4628646
2.40599999999985 0.4808878
2.40699999999985 0.4409792
2.40799999999985 0.4680141
2.40899999999985 0.4293928
2.40999999999985 0.5143596
2.41099999999985 0.5401072
2.41199999999985 0.6289362
2.41299999999985 0.7100409
2.41399999999985 0.8323417
2.41499999999985 0.8297669
2.41599999999984 0.8542271
2.41699999999984 0.9276076
2.41799999999984 0.9057222
2.41899999999984 0.8761125
2.41999999999984 0.8143184
2.42099999999984 0.7975825
2.42199999999984 0.6559711
2.42299999999984 0.6057634
2.42399999999984 0.505348
2.42499999999984 0.495049
2.42599999999984 0.4512782
2.42699999999984 0.4924742
2.42799999999984 0.4705888
2.42899999999984 0.4293928
2.42999999999984 0.5079228
2.43099999999984 0.5555557
2.43199999999984 0.6366604
2.43299999999984 0.703604
2.43399999999984 0.8143184
2.43499999999984 0.8889863
2.43599999999984 0.9430561
2.43699999999984 0.8799746
2.43799999999984 0.8761125
2.43899999999984 0.8825494
2.43999999999984 0.8246174
2.44099999999984 0.7396506
2.44199999999984 0.6804312
2.44299999999984 0.5864527
2.44399999999984 0.5684295
2.44499999999984 0.4628646
2.44599999999984 0.4435539
2.44699999999984 0.4293928
2.44799999999984 0.4293928
2.44899999999984 0.4808878
2.44999999999984 0.5336703
2.45099999999984 0.6019013
2.45199999999984 0.625074
2.45299999999984 0.7190525
2.45399999999984 0.8233301
2.45499999999984 0.870963
2.45599999999984 0.9121591
2.45699999999984 0.9585046
2.45799999999984 0.8748251
2.45899999999984 0.8889863
2.45999999999984 0.8902736
2.46099999999984 0.7332137
2.46199999999984 0.6585458
2.46299999999984 0.5619926
2.46399999999984 0.5092101
2.46499999999984 0.5310955
2.46599999999984 0.4384044
2.46699999999984 0.4203811
2.46799999999984 0.4178064
2.46899999999984 0.4512782
2.46999999999984 0.4963364
2.47099999999984 0.5594178
2.47199999999984 0.6418099
2.47299999999984 0.7409379
2.47399999999984 0.8104563
2.47499999999984 0.9147338
2.47599999999984 0.8876989
2.47699999999984 0.9533551
2.47799999999984 0.9276076
2.47899999999984 0.9623667
2.47999999999984 0.8568019
2.48099999999984 0.7975825
2.48199999999984 0.7602486
2.48299999999984 0.6199245
2.48399999999984 0.5710042
2.48499999999984 0.5581304
2.48599999999984 0.48475
2.48699999999984 0.4873247
2.48799999999984 0.5117849
2.48899999999984 0.5542683
2.48999999999984 0.5426819
2.49099999999984 0.6533963
2.49199999999984 0.7666855
2.49299999999984 0.8439281
2.49399999999984 0.9044348
2.49499999999984 0.9276076
2.49599999999984 0.9868269
2.49699999999984 0.9881143
2.49799999999984 1.022873
2.49899999999984 0.9623667
2.49999999999984 0.8773999
2.50099999999984 0.8156058
2.50199999999984 0.7254894
2.50299999999984 0.6482468
2.50399999999984 0.5993265
2.50499999999984 0.6006139
2.50599999999984 0.5104975
2.50699999999983 0.573579
2.50799999999983 0.5233713
2.50899999999983 0.5748663
2.50999999999983 0.6649827
2.51099999999983 0.6842934
2.51199999999983 0.7641107
2.51299999999983 0.8928484
2.51399999999983 0.8851241
2.51499999999983 0.9546425
2.51599999999983 1.017724
2.51699999999983 1.019011
2.51799999999983 1.047334
2.51899999999983 1.040897
2.51999999999983 0.9649415
2.52099999999983 0.9636541
2.52199999999983 0.8465028
2.52299999999983 0.7486622
2.52399999999983 0.7293516
2.52499999999983 0.6894429
2.52599999999983 0.6160624
2.52699999999983 0.6521089
2.52799999999983 0.594177
2.52899999999983 0.6006139
2.52999999999983 0.6418099
2.53099999999983 0.703604
2.53199999999983 0.8362038
2.53299999999983 0.8568019
2.53399999999983 0.8786873
2.53499999999983 0.9482056
2.53599999999983 1.008712
2.53699999999983 1.028023
2.53799999999983 1.021586
2.53899999999983 0.9984133
2.53999999999983 0.9623667
2.54099999999983 0.8568019
2.54199999999983 0.8220427
2.54299999999983 0.6598332
2.54399999999983 0.5993265
2.54499999999983 0.5800159
2.54599999999983 0.5130723
2.54699999999983 0.5104975
2.54799999999983 0.5671421
2.54899999999983 0.5195091
2.54999999999983 0.573579
2.55099999999983 0.6456721
2.55199999999983 0.7460875
2.55299999999983 0.7769845
2.55399999999983 0.8297669
2.55499999999983 0.860664
2.55599999999983 0.9160212
2.55699999999983 0.9005727
2.55799999999983 0.9147338
2.55899999999983 0.9044348
2.55999999999983 0.840066
2.56099999999983 0.8194679
2.56199999999983 0.7164778
2.56299999999983 0.5787285
2.56399999999983 0.5092101
2.56499999999983 0.4963364
2.56599999999983 0.4306801
2.56699999999983 0.4229559
2.56799999999983 0.4693015
2.56899999999983 0.4036452
2.56999999999983 0.4512782
2.57099999999983 0.5323829
2.57199999999983 0.5877401
2.57299999999983 0.6701322
2.57399999999983 0.7306389
2.57499999999983 0.8426407
2.57599999999983 0.8465028
2.57699999999983 0.8413533
2.57799999999983 0.8761125
2.57899999999983 0.8529397
2.57999999999983 0.7962951
2.58099999999983 0.7782719
2.58199999999983 0.6495342
2.58299999999983 0.5439693
2.58399999999983 0.4860373
2.58499999999983 0.4615772
2.58599999999983 0.395921
2.58699999999983 0.3997831
2.58799999999983 0.447416
2.58899999999983 0.3972084
2.58999999999983 0.5001985
2.59099999999983 0.5478314
2.59199999999983 0.5813032
2.59299999999983 0.6662701
2.59399999999983 0.7692602
2.59499999999983 0.7731224
2.59599999999983 0.8838368
2.59699999999983 0.8323417
2.59799999999982 0.8864115
2.59899999999982 0.8413533
2.59999999999982 0.8117437
2.60099999999982 0.7756971
2.60199999999982 0.6212119
2.60299999999982 0.5516936
2.60399999999982 0.4821752
2.60499999999982 0.4705888
2.60599999999982 0.4242433
2.60699999999982 0.3804725
2.60799999999982 0.4216685
2.60899999999982 0.4075074
2.60999999999982 0.4487034
2.61099999999982 0.5130723
2.61199999999982 0.5903149
2.61299999999982 0.6752817
2.61399999999982 0.7370758
2.61499999999982 0.7962951
2.61599999999982 0.8323417
2.61699999999982 0.8593766
2.61799999999982 0.8658135
2.61899999999982 0.8748251
2.61999999999982 0.7859961
2.62099999999982 0.7190525
2.62199999999982 0.6315109
2.62299999999982 0.5413945
2.62399999999982 0.5040606
2.62499999999982 0.447416
2.62599999999982 0.447416
2.62699999999982 0.40622
2.62799999999982 0.40622
2.62899999999982 0.426818
2.62999999999982 0.5014859
2.63099999999982 0.525946
2.63199999999982 0.6057634
2.63299999999982 0.683006
2.63399999999982 0.7306389
2.63499999999982 0.8168932
2.63599999999982 0.8619514
2.63699999999982 0.8761125
2.63799999999982 0.8632387
2.63899999999982 0.8658135
2.63999999999982 0.8156058
2.64099999999982 0.7538117
2.64199999999982 0.6456721
2.64299999999982 0.5465441
2.64399999999982 0.5233713
2.64499999999982 0.5285208
2.64599999999982 0.4075074
2.64699999999982 0.3727482
2.64799999999982 0.3972084
2.64899999999982 0.4087947
2.64999999999982 0.4731636
2.65099999999982 0.5233713
2.65199999999982 0.5993265
2.65299999999982 0.6765691
2.65399999999982 0.7628233
2.65499999999982 0.8091689
2.65599999999982 0.8761125
2.65699999999982 0.9108717
2.65799999999982 0.9636541
2.65899999999982 0.9044348
2.65999999999982 0.8902736
2.66099999999982 0.850365
2.66199999999982 0.7563865
2.66299999999982 0.6752817
2.66399999999982 0.662408
2.66499999999982 0.6237867
2.66599999999982 0.536245
2.66699999999982 0.5607052
2.66799999999982 0.6006139
2.66899999999982 0.6469594
2.66999999999982 0.7383632
2.67099999999982 0.9108717
2.67199999999982 1.109128
2.67299999999982 1.228854
2.67399999999982 1.403937
2.67499999999982 1.595756
2.67599999999982 1.712907
2.67699999999982 1.840358
2.67799999999982 1.957509
2.67899999999982 1.970383
2.67999999999982 2.019303
2.68099999999982 1.963946
2.68199999999982 1.889278
2.68299999999982 1.86868
2.68399999999982 1.778564
2.68499999999982 1.702608
2.68599999999982 1.575158
2.68699999999982 1.522376
2.68799999999982 1.47603
2.68899999999981 1.412949
2.68999999999981 1.366603
2.69099999999981 1.322832
2.69199999999981 1.263613
2.69299999999981 1.248164
2.69399999999981 1.205681
2.69499999999981 1.181221
2.69599999999981 1.110415
2.69699999999981 1.098829
2.69799999999981 0.9855395
2.69899999999981 0.9250328
2.69999999999981 0.8349164
2.70099999999981 0.7357884
2.70199999999981 0.6392352
2.70299999999981 0.5594178
2.70399999999981 0.4731636
2.70499999999981 0.4602898
2.70599999999981 0.426818
2.70699999999981 0.3907715
2.70799999999981 0.3315521
2.70899999999981 0.3405638
2.70999999999981 0.4499908
2.71099999999981 0.5040606
2.71199999999981 0.5439693
2.71299999999981 0.6765691
2.71399999999981 0.7023166
2.71499999999981 0.782134
2.71599999999981 0.850365
2.71699999999981 0.8580892
2.71799999999981 0.8889863
2.71899999999981 0.850365
2.71999999999981 0.813031
2.72099999999981 0.7229147
2.72199999999981 0.6430973
2.72299999999981 0.583878
2.72399999999981 0.5465441
2.72499999999981 0.4808878
2.72599999999981 0.4087947
2.72699999999981 0.3984957
2.72799999999981 0.4255306
2.72899999999981 0.4087947
2.72999999999981 0.4422665
2.73099999999981 0.4963364
2.73199999999981 0.6340857
2.73299999999981 0.6739944
2.73399999999981 0.7280642
2.73499999999981 0.7885709
2.73599999999981 0.8181805
2.73699999999981 0.8297669
2.73799999999981 0.8902736
2.73899999999981 0.8542271
2.73999999999981 0.7756971
2.74099999999981 0.7422253
2.74199999999981 0.6997419
2.74299999999981 0.5568431
2.74399999999981 0.5104975
2.74499999999981 0.4757383
2.74599999999981 0.4358297
2.74699999999981 0.3881967
2.74799999999981 0.4396918
2.74899999999981 0.4075074
2.74999999999981 0.5027732
2.75099999999981 0.5864527
2.75199999999981 0.6083381
2.75299999999981 0.6765691
2.75399999999981 0.7769845
2.75499999999981 0.8104563
2.75599999999981 0.8658135
2.75699999999981 0.8773999
2.75799999999981 0.8773999
2.75899999999981 0.8529397
2.75999999999981 0.8310543
2.76099999999981 0.7731224
2.76199999999981 0.6379478
2.76299999999981 0.5491188
2.76399999999981 0.536245
2.76499999999981 0.5027732
2.76599999999981 0.4487034
2.76699999999981 0.4010705
2.76799999999981 0.4087947
2.76899999999981 0.4525656
2.76999999999981 0.4654393
2.77099999999981 0.5182218
2.77199999999981 0.6546837
2.77299999999981 0.6894429
2.77399999999981 0.7473748
2.77499999999981 0.8529397
2.77599999999981 0.8799746
2.77699999999981 0.8529397
2.77799999999981 0.9147338
2.77899999999981 0.9082969
2.7799999999998 0.8799746
2.7809999999998 0.7435127
2.7819999999998 0.6649827
2.7829999999998 0.5903149
2.7839999999998 0.5516936
2.7849999999998 0.4796005
2.7859999999998 0.4963364
2.7869999999998 0.4152316
2.7879999999998 0.4615772
2.7889999999998 0.5079228
2.7899999999998 0.474451
2.7909999999998 0.536245
2.7919999999998 0.6315109
2.7929999999998 0.7306389
2.7939999999998 0.7808466
2.7949999999998 0.8542271
2.7959999999998 0.8799746
2.7969999999998 0.8967105
2.7979999999998 0.9031474
2.7989999999998 0.9469182
2.7999999999998 0.8490776
2.8009999999998 0.7731224
2.8019999999998 0.7151904
2.8029999999998 0.6752817
2.8039999999998 0.6031886
2.8049999999998 0.5220839
2.8059999999998 0.4718762
2.8069999999998 0.4409792
2.8079999999998 0.4834626
2.8089999999998 0.5001985
2.8099999999998 0.4976237
2.8109999999998 0.5671421
2.8119999999998 0.6482468
2.8129999999998 0.7769845
2.8139999999998 0.7962951
2.8149999999998 0.8336291
2.8159999999998 0.9404813
2.8169999999998 0.8992853
2.8179999999998 0.9173086
2.8189999999998 0.9649415
2.8199999999998 0.8671009
2.8209999999998 0.8065942
2.8219999999998 0.7177652
2.8229999999998 0.6302235
2.8239999999998 0.56328
2.8249999999998 0.5697168
2.8259999999998 0.4705888
2.8269999999998 0.5040606
2.8279999999998 0.5272334
2.8289999999998 0.4796005
2.8299999999998 0.5298082
2.8309999999998 0.5928896
2.8319999999998 0.662408
2.8329999999998 0.813031
2.8339999999998 0.8207553
2.8349999999998 0.9108717
2.8359999999998 0.9147338
2.8369999999998 0.9430561
2.8379999999998 0.9469182
2.8389999999998 0.9224581
2.8399999999998 0.8671009
2.8409999999998 0.8349164
2.8419999999998 0.8001573
2.8429999999998 0.6817186
2.8439999999998 0.6791439
2.8449999999998 0.5684295
2.8459999999998 0.5336703
2.8469999999998 0.5478314
2.8479999999998 0.5336703
2.8489999999998 0.5040606
2.8499999999998 0.6160624
2.8509999999998 0.6340857
2.8519999999998 0.7061788
2.8529999999998 0.8207553
2.8539999999998 0.9044348
2.8549999999998 0.9121591
2.8559999999998 0.939194
2.8569999999998 0.9855395
2.8579999999998 0.9533551
2.8589999999998 0.98039
2.8599999999998 0.939194
2.8609999999998 0.8413533
2.8619999999998 0.8426407
2.8629999999998 0.7847088
2.8639999999998 0.7113283
2.8649999999998 0.5980391
2.8659999999998 0.5568431
2.8669999999998 0.5388198
2.8679999999998 0.5529809
2.8689999999998 0.5568431
2.86999999999979 0.5993265
2.87099999999979 0.6778565
2.87199999999979 0.8091689
2.87299999999979 0.8683882
2.87399999999979 0.8773999
2.87499999999979 0.98039
2.87599999999979 1.06407
2.87699999999979 0.9855395
2.87799999999979 1.017724
2.87899999999979 1.01
2.87999999999979 1.002275
2.88099999999979 0.9070095
2.88199999999979 0.8143184
2.88299999999979 0.7332137
2.88399999999979 0.7151904
2.88499999999979 0.6418099
2.88599999999979 0.6430973
2.88699999999979 0.6006139
2.88799999999979 0.5825906
2.88899999999979 0.6006139
2.88999999999979 0.6392352
2.89099999999979 0.703604
2.89199999999979 0.7808466
2.89299999999979 0.8748251
2.89399999999979 0.9276076
2.89499999999979 1.000988
2.89599999999979 1.08338
2.89699999999979 1.120714
2.89799999999979 1.116852
2.89899999999979 1.084668
2.89999999999979 1.01
2.90099999999979 0.9507804
2.90199999999979 0.9031474
2.90299999999979 0.8143184
2.90399999999979 0.7576738
2.90499999999979 0.7705476
2.90599999999979 0.7048914
2.90699999999979 0.6752817
2.90799999999979 0.683006
2.90899999999979 0.6804312
2.90999999999979 0.7370758
2.91099999999979 0.771835
2.91199999999979 0.8786873
2.91299999999979 1.025448
2.91399999999979 0.9971259
2.91499999999979 1.109128
2.91599999999979 1.120714
2.91699999999979 1.206968
2.91799999999979 1.174784
2.91899999999979 1.124576
2.91999999999979 1.136163
2.92099999999979 1.061495
2.92199999999979 1.025448
2.92299999999979 0.9288949
2.92399999999979 0.850365
2.92499999999979 0.7950078
2.92599999999979 0.7448001
2.92699999999979 0.7782719
2.92799999999979 0.7898583
2.92899999999979 0.7435127
2.92999999999979 0.7692602
2.93099999999979 0.8465028
2.93199999999979 0.9482056
2.93299999999979 0.9971259
2.93399999999979 1.10784
2.93499999999979 1.128438
2.93599999999979 1.185083
2.93699999999979 1.213405
2.93799999999979 1.159335
2.93899999999979 1.185083
2.93999999999979 1.149036
2.94099999999979 1.097541
2.94199999999979 1.025448
2.94299999999979 0.9881143
2.94399999999979 0.8748251
2.94499999999979 0.8696756
2.94599999999979 0.7769845
2.94699999999979 0.7280642
2.94799999999979 0.7460875
2.94899999999979 0.8194679
2.94999999999979 0.8065942
2.95099999999979 0.9173086
2.95199999999979 0.9237454
2.95299999999979 1.046046
2.95399999999979 1.105266
2.95499999999979 1.160623
2.95599999999979 1.185083
2.95699999999979 1.246877
2.95799999999979 1.206968
2.95899999999979 1.212118
2.95999999999979 1.145174
2.96099999999978 1.082093
2.96199999999978 0.9816774
2.96299999999978 0.8761125
2.96399999999978 0.8065942
2.96499999999978 0.7525243
2.96599999999978 0.7370758
2.96699999999978 0.7100409
2.96799999999978 0.7126157
2.96899999999978 0.6456721
2.96999999999978 0.6585458
2.97099999999978 0.7332137
2.97199999999978 0.802732
2.97299999999978 0.8941358
2.97399999999978 0.9147338
2.97499999999978 0.9688036
2.97599999999978 1.061495
2.97699999999978 0.9984133
2.97799999999978 1.020299
2.97899999999978 1.040897
2.97999999999978 0.9842521
2.98099999999978 0.9430561
2.98199999999978 0.8104563
2.98299999999978 0.7010293
2.98399999999978 0.6842934
2.98499999999978 0.5542683
2.98599999999978 0.4860373
2.98699999999978 0.4551403
2.98799999999978 0.5117849
2.98899999999978 0.447416
2.98999999999978 0.4886121
2.99099999999978 0.5800159
2.99199999999978 0.6791439
2.99299999999978 0.7254894
2.99399999999978 0.7486622
2.99499999999978 0.7885709
2.99599999999978 0.8181805
2.99699999999978 0.8838368
2.99799999999978 0.840066
2.99899999999978 0.8065942
2.99999999999978 0.771835
3.00099999999978 0.7795592
3.00199999999978 0.6212119
3.00299999999978 0.5619926
3.00399999999978 0.4924742
3.00499999999978 0.4216685
3.00599999999978 0.3920588
3.00699999999978 0.3457133
3.00799999999978 0.3431385
3.00899999999978 0.3547249
3.00999999999978 0.4461287
3.01099999999978 0.505348
3.01199999999978 0.5478314
3.01299999999978 0.6031886
3.01399999999978 0.6714196
3.01499999999978 0.7332137
3.01599999999978 0.8065942
3.01699999999978 0.7795592
3.01799999999978 0.8078815
3.01899999999978 0.7602486
3.01999999999978 0.7653981
3.02099999999978 0.6675575
3.02199999999978 0.5980391
3.02299999999978 0.5851654
3.02399999999978 0.4590024
3.02499999999978 0.4538529
3.02599999999978 0.3186784
3.02699999999978 0.3585871
3.02799999999978 0.3663113
3.02899999999978 0.3585871
3.02999999999978 0.3688861
3.03099999999978 0.4937616
3.03199999999978 0.5298082
3.03299999999978 0.6212119
3.03399999999978 0.6649827
3.03499999999978 0.713903
3.03599999999978 0.7731224
3.03699999999978 0.8323417
3.03799999999978 0.802732
3.03899999999978 0.7563865
3.03999999999978 0.7834214
3.04099999999978 0.6765691
3.04199999999978 0.6134876
3.04299999999978 0.5104975
3.04399999999978 0.4409792
3.04499999999978 0.4293928
3.04599999999978 0.337989
3.04699999999978 0.3367016
3.04799999999978 0.3367016
3.04899999999978 0.3791851
3.04999999999978 0.3701734
3.05099999999978 0.4667267
3.05199999999977 0.5246587
3.05299999999977 0.5877401
3.05399999999977 0.6894429
3.05499999999977 0.7048914
3.05599999999977 0.782134
3.05699999999977 0.8220427
3.05799999999977 0.802732
3.05899999999977 0.802732
3.05999999999977 0.8014447
3.06099999999977 0.7422253
3.06199999999977 0.6006139
3.06299999999977 0.5529809
3.06399999999977 0.4667267
3.06499999999977 0.4306801
3.06599999999977 0.3675987
3.06699999999977 0.3727482
3.06799999999977 0.395921
3.06899999999977 0.3701734
3.06999999999977 0.3997831
3.07099999999977 0.5298082
3.07199999999977 0.604476
3.07299999999977 0.7010293
3.07399999999977 0.6842934
3.07499999999977 0.751237
3.07599999999977 0.8168932
3.07699999999977 0.8490776
3.07799999999977 0.8490776
3.07899999999977 0.8349164
3.07999999999977 0.8091689
3.08099999999977 0.7576738
3.08199999999977 0.6315109
3.08299999999977 0.5529809
3.08399999999977 0.5542683
3.08499999999977 0.4242433
3.08599999999977 0.3766103
3.08699999999977 0.3675987
3.08799999999977 0.3843346
3.08899999999977 0.4036452
3.08999999999977 0.4718762
3.09099999999977 0.4783131
3.09199999999977 0.5516936
3.09299999999977 0.6675575
3.09399999999977 0.6868681
3.09499999999977 0.7383632
3.09599999999977 0.7628233
3.09699999999977 0.813031
3.09799999999977 0.8117437
3.09899999999977 0.8078815
3.09999999999977 0.7563865
3.10099999999977 0.7692602
3.10199999999977 0.6353731
3.10299999999977 0.5645673
3.10399999999977 0.4886121
3.10499999999977 0.4216685
3.10599999999977 0.3766103
3.10699999999977 0.4293928
3.10799999999977 0.4049326
3.10899999999977 0.3933462
3.10999999999977 0.4203811
3.11099999999977 0.4783131
3.11199999999977 0.5452567
3.11299999999977 0.6752817
3.11399999999977 0.683006
3.11499999999977 0.7319263
3.11599999999977 0.8349164
3.11699999999977 0.8143184
3.11799999999977 0.8014447
3.11899999999977 0.8181805
3.11999999999977 0.7731224
3.12099999999977 0.7151904
3.12199999999977 0.6405226
3.12299999999977 0.5697168
3.12399999999977 0.5040606
3.12499999999977 0.4461287
3.12599999999977 0.3869093
3.12699999999977 0.416519
3.12799999999977 0.3701734
3.12899999999977 0.4087947
3.12999999999977 0.4190938
3.13099999999977 0.4718762
3.13199999999977 0.604476
3.13299999999977 0.6134876
3.13399999999977 0.6907303
3.13499999999977 0.7576738
3.13599999999977 0.8091689
3.13699999999977 0.8362038
3.13799999999977 0.8168932
3.13899999999977 0.8323417
3.13999999999977 0.7769845
3.14099999999977 0.6958798
3.14199999999977 0.6199245
3.14299999999976 0.56328
3.14399999999976 0.5027732
3.14499999999976 0.4834626
3.14599999999976 0.4229559
3.14699999999976 0.3946336
3.14799999999976 0.3688861
3.14899999999976 0.4152316
3.14999999999976 0.4499908
3.15099999999976 0.5323829
3.15199999999976 0.6109129
3.15299999999976 0.6482468
3.15399999999976 0.6945924
3.15499999999976 0.7937204
3.15599999999976 0.8426407
3.15699999999976 0.8619514
3.15799999999976 0.8104563
3.15899999999976 0.840066
3.15999999999976 0.7782719
3.16099999999976 0.7164778
3.16199999999976 0.6585458
3.16299999999976 0.5619926
3.16399999999976 0.5542683
3.16499999999976 0.4255306
3.16599999999976 0.3714608
3.16699999999976 0.4100821
3.16799999999976 0.3920588
3.16899999999976 0.4152316
3.16999999999976 0.4203811
3.17099999999976 0.4989111
3.17199999999976 0.5529809
3.17299999999976 0.6791439
3.17399999999976 0.6907303
3.17499999999976 0.7396506
3.17599999999976 0.8104563
3.17699999999976 0.8825494
3.17799999999976 0.8143184
3.17899999999976 0.8001573
3.17999999999976 0.802732
3.18099999999976 0.7872835
3.18199999999976 0.6649827
3.18299999999976 0.5594178
3.18399999999976 0.5066354
3.18499999999976 0.4577151
3.18599999999976 0.4345423
3.18699999999976 0.3714608
3.18799999999976 0.3843346
3.18899999999976 0.3843346
3.18999999999976 0.4577151
3.19099999999976 0.4796005
3.19199999999976 0.5452567
3.19299999999976 0.6263614
3.19399999999976 0.6945924
3.19499999999976 0.7409379
3.19599999999976 0.7950078
3.19699999999976 0.8233301
3.19799999999976 0.8323417
3.19899999999976 0.8117437
3.19999999999976 0.7666855
3.20099999999976 0.713903
3.20199999999976 0.6353731
3.20299999999976 0.5671421
3.20399999999976 0.5195091
3.20499999999976 0.4499908
3.20599999999976 0.4602898
3.20699999999976 0.4242433
3.20799999999976 0.426818
3.20899999999976 0.3907715
3.20999999999976 0.4113695
3.21099999999976 0.4976237
3.21199999999976 0.5568431
3.21299999999976 0.6881555
3.21399999999976 0.7576738
3.21499999999976 0.792433
3.21599999999976 0.8156058
3.21699999999976 0.8516523
3.21799999999976 0.891561
3.21899999999976 0.8516523
3.21999999999976 0.7937204
3.22099999999976 0.7422253
3.22199999999976 0.7280642
3.22299999999976 0.5954644
3.22399999999976 0.5246587
3.22499999999976 0.5310955
3.22599999999976 0.3984957
3.22699999999976 0.4538529
3.22799999999976 0.3907715
3.22899999999976 0.3907715
3.22999999999976 0.4718762
3.23099999999976 0.4976237
3.23199999999976 0.6109129
3.23299999999976 0.6752817
3.23399999999975 0.6997419
3.23499999999975 0.7383632
3.23599999999975 0.8748251
3.23699999999975 0.8439281
3.23799999999975 0.8439281
3.23899999999975 0.8271922
3.23999999999975 0.8207553
3.24099999999975 0.7679729
3.24199999999975 0.6521089
3.24299999999975 0.594177
3.24399999999975 0.5697168
3.24499999999975 0.4577151
3.24599999999975 0.4731636
3.24699999999975 0.4512782
3.24799999999975 0.447416
3.24899999999975 0.4499908
3.24999999999975 0.4564277
3.25099999999975 0.5117849
3.25199999999975 0.5684295
3.25299999999975 0.6289362
3.25399999999975 0.7357884
3.25499999999975 0.7692602
3.25599999999975 0.8349164
3.25699999999975 0.8271922
3.25799999999975 0.8374912
3.25899999999975 0.8902736
3.25999999999975 0.8207553
3.26099999999975 0.7164778
3.26199999999975 0.6443847
3.26299999999975 0.5851654
3.26399999999975 0.5542683
3.26499999999975 0.4577151
3.26599999999975 0.3920588
3.26699999999975 0.4396918
3.26799999999975 0.3920588
3.26899999999975 0.4036452
3.26999999999975 0.4293928
3.27099999999975 0.4924742
3.27199999999975 0.6379478
3.27299999999975 0.6701322
3.27399999999975 0.7203399
3.27499999999975 0.761536
3.27599999999975 0.7937204
3.27699999999975 0.8143184
3.27799999999975 0.840066
3.27899999999975 0.8091689
3.27999999999975 0.7859961
3.28099999999975 0.7190525
3.28199999999975 0.7048914
3.28299999999975 0.6392352
3.28399999999975 0.5233713
3.28499999999975 0.4718762
3.28599999999975 0.4667267
3.28699999999975 0.4422665
3.28799999999975 0.4075074
3.28899999999975 0.4409792
3.28999999999975 0.4242433
3.29099999999975 0.5452567
3.29199999999975 0.573579
3.29299999999975 0.6778565
3.29399999999975 0.7113283
3.29499999999975 0.7782719
3.29599999999975 0.7911456
3.29699999999975 0.860664
3.29799999999975 0.8413533
3.29899999999975 0.9031474
3.29999999999975 0.8323417
3.30099999999975 0.7409379
3.30199999999975 0.6675575
3.30299999999975 0.6186372
3.30399999999975 0.5877401
3.30499999999975 0.5285208
3.30599999999975 0.4435539
3.30699999999975 0.4551403
3.30799999999975 0.4680141
3.30899999999975 0.4422665
3.30999999999975 0.4731636
3.31099999999975 0.5040606
3.31199999999975 0.6237867
3.31299999999975 0.7061788
3.31399999999975 0.7422253
3.31499999999975 0.7834214
3.31599999999975 0.8902736
3.31699999999975 0.8259048
3.31799999999975 0.8632387
3.31899999999975 0.8889863
3.31999999999975 0.8683882
3.32099999999975 0.7499496
3.32199999999975 0.6688448
3.32299999999975 0.5825906
3.32399999999974 0.5825906
3.32499999999974 0.5516936
3.32599999999974 0.4512782
3.32699999999974 0.4680141
3.32799999999974 0.4087947
3.32899999999974 0.4731636
3.32999999999974 0.4873247
3.33099999999974 0.5104975
3.33199999999974 0.5903149
3.33299999999974 0.6907303
3.33399999999974 0.7332137
3.33499999999974 0.7641107
3.33599999999974 0.8323417
3.33699999999974 0.9160212
3.33799999999974 0.8671009
3.33899999999974 0.9160212
3.33999999999974 0.8040194
3.34099999999974 0.8168932
3.34199999999974 0.6765691
3.34299999999974 0.6276488
3.34399999999974 0.604476
3.34499999999974 0.4783131
3.34599999999974 0.4229559
3.34699999999974 0.4087947
3.34799999999974 0.4100821
3.34899999999974 0.4113695
3.34999999999974 0.4461287
3.35099999999974 0.5594178
3.35199999999974 0.5864527
3.35299999999974 0.7164778
3.35399999999974 0.703604
3.35499999999974 0.7975825
3.35599999999974 0.8349164
3.35699999999974 0.8220427
3.35799999999974 0.8902736
3.35899999999974 0.8696756
3.35999999999974 0.813031
3.36099999999974 0.7550991
3.36199999999974 0.724202
3.36299999999974 0.6096255
3.36399999999974 0.5504062
3.36499999999974 0.5207965
3.36599999999974 0.4667267
3.36699999999974 0.4010705
3.36799999999974 0.4049326
3.36899999999974 0.4628646
3.36999999999974 0.4525656
3.37099999999974 0.5246587
3.37199999999974 0.5993265
3.37299999999974 0.7023166
3.37399999999974 0.7293516
3.37499999999974 0.8091689
3.37599999999974 0.8477902
3.37699999999974 0.8735377
3.37799999999974 0.8761125
3.37899999999974 0.8761125
3.37999999999974 0.8439281
3.38099999999974 0.7782719
3.38199999999974 0.7151904
3.38299999999974 0.6418099
3.38399999999974 0.6315109
3.38499999999974 0.5787285
3.38599999999974 0.5594178
3.38699999999974 0.4808878
3.38799999999974 0.4757383
3.38899999999974 0.4602898
3.38999999999974 0.5388198
3.39099999999974 0.5594178
3.39199999999974 0.6971671
3.39299999999974 0.7280642
3.39399999999974 0.792433
3.39499999999974 0.8773999
3.39599999999974 0.8967105
3.39699999999974 0.939194
3.39799999999974 0.9855395
3.39899999999974 0.9546425
3.39999999999974 0.881262
3.40099999999974 0.8439281
3.40199999999974 0.7460875
3.40299999999974 0.7164778
3.40399999999974 0.6224993
3.40499999999974 0.5619926
3.40599999999974 0.515647
3.40699999999974 0.515647
3.40799999999974 0.5117849
3.40899999999974 0.4860373
3.40999999999974 0.5671421
3.41099999999974 0.6817186
3.41199999999974 0.6997419
3.41299999999974 0.7692602
3.41399999999974 0.8233301
3.41499999999973 0.9005727
3.41599999999973 0.9752405
3.41699999999973 1.056345
3.41799999999973 0.9945512
3.41899999999973 1.048621
3.41999999999973 0.9739531
3.42099999999973 0.9108717
3.42199999999973 0.9250328
3.42299999999973 0.8040194
3.42399999999973 0.7383632
3.42499999999973 0.7435127
3.42599999999973 0.6353731
3.42699999999973 0.6186372
3.42799999999973 0.5800159
3.42899999999973 0.5800159
3.42999999999973 0.6224993
3.43099999999973 0.7370758
3.43199999999973 0.7448001
3.43299999999973 0.7962951
3.43399999999973 0.8658135
3.43499999999973 0.9147338
3.43599999999973 0.9456308
3.43699999999973 0.9662289
3.43799999999973 1.030598
3.43899999999973 1.015149
3.43999999999973 0.959792
3.44099999999973 0.9276076
3.44199999999973 0.7885709
3.44299999999973 0.7203399
3.44399999999973 0.6598332
3.44499999999973 0.6199245
3.44599999999973 0.5323829
3.44699999999973 0.5143596
3.44799999999973 0.5027732
3.44899999999973 0.5426819
3.44999999999973 0.5104975
3.45099999999973 0.6302235
3.45199999999973 0.6765691
3.45299999999973 0.7589612
3.45399999999973 0.7576738
3.45499999999973 0.8104563
3.45599999999973 0.8722504
3.45699999999973 0.9082969
3.45799999999973 0.860664
3.45899999999973 0.8645261
3.45999999999973 0.8490776
3.46099999999973 0.7679729
3.46199999999973 0.6971671
3.46299999999973 0.6134876
3.46399999999973 0.5581304
3.46499999999973 0.4911869
3.46599999999973 0.4306801
3.46699999999973 0.4010705
3.46799999999973 0.3997831
3.46899999999973 0.395921
3.46999999999973 0.4435539
3.47099999999973 0.4783131
3.47199999999973 0.5555557
3.47299999999973 0.6636953
3.47399999999973 0.6714196
3.47499999999973 0.7834214
3.47599999999973 0.8104563
3.47699999999973 0.8825494
3.47799999999973 0.8233301
3.47899999999973 0.8490776
3.47999999999973 0.7859961
3.48099999999973 0.7216273
3.48199999999973 0.6392352
3.48299999999973 0.5761537
3.48399999999973 0.5220839
3.48499999999973 0.4898995
3.48599999999973 0.3907715
3.48699999999973 0.3933462
3.48799999999973 0.4178064
3.48899999999973 0.3714608
3.48999999999973 0.4499908
3.49099999999973 0.4821752
3.49199999999973 0.5671421
3.49299999999973 0.6122003
3.49399999999973 0.6739944
3.49499999999973 0.8001573
3.49599999999973 0.7834214
3.49699999999973 0.7975825
3.49799999999973 0.8465028
3.49899999999973 0.7950078
3.49999999999973 0.7847088
3.50099999999973 0.7216273
3.50199999999973 0.6482468
3.50299999999973 0.5710042
3.50399999999973 0.5491188
3.50499999999973 0.4937616
3.50599999999972 0.4075074
3.50699999999972 0.3881967
3.50799999999972 0.3869093
3.50899999999972 0.4409792
3.50999999999972 0.4461287
3.51099999999972 0.4705888
3.51199999999972 0.6006139
3.51299999999972 0.6327983
3.51399999999972 0.6817186
3.51499999999972 0.7525243
3.51599999999972 0.802732
3.51699999999972 0.8323417
3.51799999999972 0.8259048
3.51899999999972 0.8323417
3.51999999999972 0.7898583
3.52099999999972 0.7280642
3.52199999999972 0.713903
3.52299999999972 0.625074
3.52399999999972 0.5323829
3.52499999999972 0.4757383
3.52599999999972 0.4036452
3.52699999999972 0.4487034
3.52799999999972 0.4126569
3.52899999999972 0.3881967
3.52999999999972 0.4319675
3.53099999999972 0.4757383
3.53199999999972 0.5864527
3.53299999999972 0.6817186
3.53399999999972 0.7589612
3.53499999999972 0.7962951
3.53599999999972 0.8490776
3.53699999999972 0.8091689
3.53799999999972 0.8477902
3.53899999999972 0.8516523
3.53999999999972 0.7756971
3.54099999999972 0.7396506
3.54199999999972 0.7010293
3.54299999999972 0.56328
3.54399999999972 0.525946
3.54499999999972 0.4680141
3.54599999999972 0.4190938
3.54699999999972 0.4075074
3.54799999999972 0.3843346
3.54899999999972 0.3688861
3.54999999999972 0.40622
3.55099999999972 0.5027732
3.55199999999972 0.5684295
3.55299999999972 0.625074
3.55399999999972 0.7460875
3.55499999999972 0.7705476
3.55599999999972 0.8078815
3.55699999999972 0.8979979
3.55799999999972 0.8696756
3.55899999999972 0.8928484
3.55999999999972 0.9224581
3.56099999999972 0.8220427
3.56199999999972 0.7267768
3.56299999999972 0.7229147
3.56399999999972 0.6546837
3.56499999999972 0.6263614
3.56599999999972 0.5401072
3.56699999999972 0.5748663
3.56799999999972 0.5980391
3.56899999999972 0.6675575
3.56999999999972 0.7332137
3.57099999999972 0.8671009
3.57199999999972 1.026736
3.57299999999972 1.176071
3.57399999999972 1.369178
3.57499999999972 1.527525
3.57599999999972 1.68716
3.57699999999972 1.812035
3.57799999999972 1.9176
3.57899999999972 1.987119
3.57999999999972 2.061786
3.58099999999972 2.010291
3.58199999999972 1.979394
3.58299999999972 1.867393
3.58399999999972 1.831346
3.58499999999972 1.71162
3.58599999999972 1.63309
3.58699999999972 1.504352
3.58799999999972 1.416811
3.58899999999972 1.331844
3.58999999999972 1.24044
3.59099999999972 1.19152
3.59199999999972 1.146462
3.59299999999972 1.131013
3.59399999999972 1.138737
3.59499999999972 1.109128
3.59599999999972 1.085955
3.59699999999971 0.9623667
3.59799999999971 0.9057222
3.59899999999971 0.8954232
3.59999999999971 0.8233301
3.60099999999971 0.7345011
3.60199999999971 0.6469594
3.60299999999971 0.5787285
3.60399999999971 0.4783131
3.60499999999971 0.4087947
3.60599999999971 0.3431385
3.60699999999971 0.32769
3.60799999999971 0.317391
3.60899999999971 0.3122415
3.60999999999971 0.3598744
3.61099999999971 0.4808878
3.61199999999971 0.5182218
3.61299999999971 0.6031886
3.61399999999971 0.6482468
3.61499999999971 0.6881555
3.61599999999971 0.7448001
3.61699999999971 0.792433
3.61799999999971 0.8001573
3.61899999999971 0.8773999
3.61999999999971 0.860664
3.62099999999971 0.7692602
3.62199999999971 0.6559711
3.62299999999971 0.583878
3.62399999999971 0.5413945
3.62499999999971 0.5401072
3.62599999999971 0.4190938
3.62699999999971 0.4087947
3.62799999999971 0.4499908
3.62899999999971 0.4448413
3.62999999999971 0.4216685
3.63099999999971 0.4783131
3.63199999999971 0.5516936
3.63299999999971 0.662408
3.63399999999971 0.703604
3.63499999999971 0.7332137
3.63599999999971 0.8284796
3.63699999999971 0.802732
3.63799999999971 0.8323417
3.63899999999971 0.8297669
3.63999999999971 0.7898583
3.64099999999971 0.7113283
3.64199999999971 0.6456721
3.64299999999971 0.614775
3.64399999999971 0.5207965
3.64499999999971 0.4487034
3.64599999999971 0.4152316
3.64699999999971 0.4293928
3.64799999999971 0.4487034
3.64899999999971 0.4255306
3.64999999999971 0.4332549
3.65099999999971 0.4834626
3.65199999999971 0.6122003
3.65299999999971 0.6199245
3.65399999999971 0.6675575
3.65499999999971 0.7061788
3.65599999999971 0.7950078
3.65699999999971 0.7988699
3.65799999999971 0.8297669
3.65899999999971 0.8516523
3.65999999999971 0.7898583
3.66099999999971 0.7628233
3.66199999999971 0.6778565
3.66299999999971 0.6199245
3.66399999999971 0.5349577
3.66499999999971 0.4821752
3.66599999999971 0.4190938
3.66699999999971 0.4358297
3.66799999999971 0.4023579
3.66899999999971 0.3869093
3.66999999999971 0.4139443
3.67099999999971 0.4860373
3.67199999999971 0.6006139
3.67299999999971 0.6379478
3.67399999999971 0.6958798
3.67499999999971 0.7666855
3.67599999999971 0.8683882
3.67699999999971 0.870963
3.67799999999971 0.8889863
3.67899999999971 0.8387786
3.67999999999971 0.8735377
3.68099999999971 0.7756971
3.68199999999971 0.7023166
3.68299999999971 0.6212119
3.68399999999971 0.5426819
3.68499999999971 0.5581304
3.68599999999971 0.4487034
3.68699999999971 0.437117
3.6879999999997 0.3997831
3.6889999999997 0.4293928
3.6899999999997 0.515647
3.6909999999997 0.5246587
3.6919999999997 0.6237867
3.6929999999997 0.6958798
3.6939999999997 0.7229147
3.6949999999997 0.761536
3.6959999999997 0.8851241
3.6969999999997 0.8555145
3.6979999999997 0.9353318
3.6989999999997 0.8902736
3.6999999999997 0.8516523
3.7009999999997 0.761536
3.7019999999997 0.713903
3.7029999999997 0.672707
3.7039999999997 0.6546837
3.7049999999997 0.5298082
3.7059999999997 0.4602898
3.7069999999997 0.4796005
3.7079999999997 0.4358297
3.7089999999997 0.4319675
3.7099999999997 0.4654393
3.7109999999997 0.5310955
3.7119999999997 0.604476
3.7129999999997 0.6559711
3.7139999999997 0.724202
3.7149999999997 0.8246174
3.7159999999997 0.8284796
3.7169999999997 0.8374912
3.7179999999997 0.9134464
3.7189999999997 0.8786873
3.7199999999997 0.8619514
3.7209999999997 0.8490776
3.7219999999997 0.7422253
3.7229999999997 0.6521089
3.7239999999997 0.6057634
3.7249999999997 0.5825906
3.7259999999997 0.4705888
3.7269999999997 0.5079228
3.7279999999997 0.4358297
3.7289999999997 0.4242433
3.7299999999997 0.4693015
3.7309999999997 0.6019013
3.7319999999997 0.6070508
3.7329999999997 0.7460875
3.7339999999997 0.7422253
3.7349999999997 0.8207553
3.7359999999997 0.8658135
3.7369999999997 0.8889863
3.7379999999997 0.9198833
3.7389999999997 0.8979979
3.7399999999997 0.8889863
3.7409999999997 0.8439281
3.7419999999997 0.7705476
3.7429999999997 0.6868681
3.7439999999997 0.625074
3.7449999999997 0.5774411
3.7459999999997 0.5143596
3.7469999999997 0.5001985
3.7479999999997 0.4834626
3.7489999999997 0.5323829
3.7499999999997 0.5233713
3.7509999999997 0.6559711
3.7519999999997 0.6791439
3.7529999999997 0.7396506
3.7539999999997 0.850365
3.7549999999997 0.8297669
3.7559999999997 0.9005727
3.7569999999997 0.9301823
3.7579999999997 0.939194
3.7589999999997 0.9456308
3.7599999999997 0.9559299
3.7609999999997 0.8349164
3.7619999999997 0.7782719
3.7629999999997 0.7795592
3.7639999999997 0.7229147
3.7649999999997 0.6327983
3.7659999999997 0.5607052
3.7669999999997 0.5452567
3.7679999999997 0.5336703
3.7689999999997 0.5594178
3.7699999999997 0.583878
3.7709999999997 0.6173498
3.7719999999997 0.7010293
3.7729999999997 0.8426407
3.7739999999997 0.8143184
3.7749999999997 0.8928484
3.7759999999997 0.9533551
3.7769999999997 0.9997007
3.77799999999969 0.970091
3.77899999999969 1.048621
3.77999999999969 0.9353318
3.78099999999969 0.9366192
3.78199999999969 0.8310543
3.78299999999969 0.7679729
3.78399999999969 0.7151904
3.78499999999969 0.6984545
3.78599999999969 0.6070508
3.78699999999969 0.6315109
3.78799999999969 0.5684295
3.78899999999969 0.5877401
3.78999999999969 0.6237867
3.79099999999969 0.6842934
3.79199999999969 0.7538117
3.79299999999969 0.8439281
3.79399999999969 0.8722504
3.79499999999969 0.9610794
3.79599999999969 0.9958385
3.79699999999969 1.106553
3.79799999999969 1.075656
3.79899999999969 1.060207
3.79999999999969 1.102691
3.80099999999969 1.046046
3.80199999999969 0.90186
3.80299999999969 0.8374912
3.80399999999969 0.8799746
3.80499999999969 0.761536
3.80599999999969 0.7023166
3.80699999999969 0.662408
3.80799999999969 0.6662701
3.80899999999969 0.7164778
3.80999999999969 0.7100409
3.81099999999969 0.771835
3.81199999999969 0.870963
3.81299999999969 0.9237454
3.81399999999969 0.9469182
3.81499999999969 1.046046
3.81599999999969 1.098829
3.81699999999969 1.146462
3.81799999999969 1.173497
3.81899999999969 1.195382
3.81999999999969 1.109128
3.82099999999969 1.070506
3.82199999999969 1.013862
3.82299999999969 0.891561
3.82399999999969 0.9095843
3.82499999999969 0.8156058
3.82599999999969 0.7473748
3.82699999999969 0.813031
3.82799999999969 0.7357884
3.82899999999969 0.7602486
3.82999999999969 0.7872835
3.83099999999969 0.8902736
3.83199999999969 0.8864115
3.83299999999969 0.9662289
3.83399999999969 1.03446
3.83499999999969 1.118139
3.83599999999969 1.143887
3.83699999999969 1.226279
3.83799999999969 1.172209
3.83899999999969 1.203106
3.83999999999969 1.109128
3.84099999999969 1.049908
3.84199999999969 0.9919764
3.84299999999969 0.9636541
3.84399999999969 0.9057222
3.84499999999969 0.8490776
3.84599999999969 0.8117437
3.84699999999969 0.8168932
3.84799999999969 0.8194679
3.84899999999969 0.7486622
3.84999999999969 0.792433
3.85099999999969 0.8362038
3.85199999999969 0.8889863
3.85299999999969 0.9855395
3.85399999999969 1.035747
3.85499999999969 1.097541
3.85599999999969 1.204394
3.85699999999969 1.150324
3.85799999999969 1.155473
3.85899999999969 1.206968
3.85999999999969 1.103978
3.86099999999969 1.066644
3.86199999999969 1.021586
3.86299999999969 0.8799746
3.86399999999969 0.8271922
3.86499999999969 0.7834214
3.86599999999969 0.6958798
3.86699999999969 0.6842934
3.86799999999969 0.7151904
3.86899999999968 0.6533963
3.86999999999968 0.6662701
3.87099999999968 0.7061788
3.87199999999968 0.8284796
3.87299999999968 0.8799746
3.87399999999968 0.8799746
3.87499999999968 0.9469182
3.87599999999968 1.013862
3.87699999999968 1.013862
3.87799999999968 0.9997007
3.87899999999968 1.049908
3.87999999999968 0.9894017
3.88099999999968 0.8336291
3.88199999999968 0.782134
3.88299999999968 0.782134
3.88399999999968 0.6353731
3.88499999999968 0.6443847
3.88599999999968 0.5233713
3.88699999999968 0.4834626
3.88799999999968 0.495049
3.88899999999968 0.437117
3.88999999999968 0.4564277
3.89099999999968 0.5014859
3.89199999999968 0.573579
3.89299999999968 0.6366604
3.89399999999968 0.6907303
3.89499999999968 0.7280642
3.89599999999968 0.8168932
3.89699999999968 0.7795592
3.89799999999968 0.8194679
3.89899999999968 0.8117437
3.89999999999968 0.840066
3.90099999999968 0.7847088
3.90199999999968 0.6469594
3.90299999999968 0.5671421
3.90399999999968 0.5014859
3.90499999999968 0.4384044
3.90599999999968 0.4229559
3.90699999999968 0.3984957
3.90799999999968 0.3585871
3.90899999999968 0.3675987
3.90999999999968 0.4036452
3.91099999999968 0.4306801
3.91199999999968 0.5207965
3.91299999999968 0.5555557
3.91399999999968 0.6199245
3.91499999999968 0.6585458
3.91599999999968 0.7357884
3.91699999999968 0.7679729
3.91799999999968 0.7422253
3.91899999999968 0.8078815
3.91999999999968 0.7113283
3.92099999999968 0.7357884
3.92199999999968 0.5877401
3.92299999999968 0.56328
3.92399999999968 0.4821752
3.92499999999968 0.4242433
3.92599999999968 0.3881967
3.92699999999968 0.3560123
3.92799999999968 0.3148162
3.92899999999968 0.3212531
3.92999999999968 0.3585871
3.93099999999968 0.4139443
3.93199999999968 0.505348
3.93299999999968 0.5529809
3.93399999999968 0.6340857
3.93499999999968 0.6521089
3.93599999999968 0.7293516
3.93699999999968 0.7203399
3.93799999999968 0.7538117
3.93899999999968 0.751237
3.93999999999968 0.7795592
3.94099999999968 0.6778565
3.94199999999968 0.6006139
3.94299999999968 0.5890275
3.94399999999968 0.5117849
3.94499999999968 0.4216685
3.94599999999968 0.348288
3.94699999999968 0.3470007
3.94799999999968 0.3714608
3.94899999999968 0.32769
3.94999999999968 0.337989
3.95099999999968 0.4152316
3.95199999999968 0.4976237
3.95299999999968 0.6224993
3.95399999999968 0.6224993
3.95499999999968 0.7074661
3.95599999999968 0.8001573
3.95699999999968 0.7962951
3.95799999999968 0.7885709
3.95899999999968 0.7911456
3.95999999999967 0.7962951
3.96099999999967 0.771835
3.96199999999967 0.6340857
3.96299999999967 0.5607052
3.96399999999967 0.5104975
3.96499999999967 0.4667267
3.96599999999967 0.3907715
3.96699999999967 0.4010705
3.96799999999967 0.3727482
3.96899999999967 0.3894841
3.96999999999967 0.3817598
3.97099999999967 0.447416
3.97199999999967 0.5195091
3.97299999999967 0.5993265
3.97399999999967 0.693305
3.97499999999967 0.761536
3.97599999999967 0.8259048
3.97699999999967 0.7872835
3.97799999999967 0.7834214
3.97899999999967 0.7988699
3.97999999999967 0.7731224
3.98099999999967 0.6997419
3.98199999999967 0.703604
3.98299999999967 0.6224993
3.98399999999967 0.5169344
3.98499999999967 0.4898995
3.98599999999967 0.4255306
3.98699999999967 0.3843346
3.98799999999967 0.3624492
3.98899999999967 0.3830472
3.98999999999967 0.3843346
3.99099999999967 0.447416
3.99199999999967 0.5684295
3.99299999999967 0.6186372
3.99399999999967 0.6366604
3.99499999999967 0.7087535
3.99599999999967 0.8117437
3.99699999999967 0.7847088
3.99799999999967 0.7911456
3.99899999999967 0.8014447
3.99999999999967 0.8091689
4.00099999999967 0.7048914
4.00199999999967 0.6482468
4.00299999999967 0.6199245
4.00399999999967 0.573579
4.00499999999967 0.474451
4.00599999999967 0.4113695
4.00699999999967 0.3830472
4.00799999999967 0.3791851
4.00899999999967 0.4152316
4.00999999999967 0.4435539
4.01099999999967 0.4783131
4.01199999999967 0.5207965
4.01299999999967 0.625074
4.01399999999968 0.7280642
4.01499999999968 0.713903
4.01599999999968 0.782134
4.01699999999968 0.8078815
4.01799999999968 0.8773999
4.01899999999968 0.8233301
4.01999999999968 0.8284796
4.02099999999968 0.7705476
4.02199999999968 0.6842934
4.02299999999968 0.5890275
4.02399999999968 0.5401072
4.02499999999968 0.5413945
4.02599999999968 0.4448413
4.02699999999968 0.4281054
4.02799999999968 0.3920588
4.02899999999968 0.3817598
4.02999999999968 0.4036452
4.03099999999968 0.5375324
4.03199999999968 0.5491188
4.03299999999968 0.5980391
4.03399999999968 0.6585458
4.03499999999968 0.7229147
4.03599999999968 0.8516523
4.03699999999968 0.8362038
4.03799999999968 0.8349164
4.03899999999968 0.8876989
4.03999999999968 0.8040194
4.04099999999968 0.7769845
4.04199999999968 0.662408
4.04299999999968 0.6611206
4.04399999999969 0.5594178
4.04499999999969 0.5182218
4.04599999999969 0.4152316
4.04699999999969 0.4590024
4.04799999999969 0.3817598
4.04899999999969 0.416519
4.04999999999969 0.4461287
4.05099999999969 0.4654393
4.05199999999969 0.5916022
4.05299999999969 0.5954644
4.05399999999969 0.6778565
4.05499999999969 0.7589612
4.05599999999969 0.7563865
4.05699999999969 0.7988699
4.05799999999969 0.7808466
4.05899999999969 0.8516523
4.05999999999969 0.813031
4.06099999999969 0.7834214
4.06199999999969 0.6585458
4.06299999999969 0.5890275
4.06399999999969 0.5401072
4.06499999999969 0.4963364
4.06599999999969 0.4332549
4.06699999999969 0.4049326
4.06799999999969 0.3972084
4.06899999999969 0.3920588
4.06999999999969 0.416519
4.07099999999969 0.4757383
4.07199999999969 0.5413945
4.07299999999969 0.6353731
4.0739999999997 0.7280642
4.0749999999997 0.7396506
4.0759999999997 0.7744097
4.0769999999997 0.8168932
4.0779999999997 0.8619514
4.0789999999997 0.8104563
4.0799999999997 0.8465028
4.0809999999997 0.7216273
4.0819999999997 0.6714196
4.0829999999997 0.6315109
4.0839999999997 0.604476
4.0849999999997 0.5169344
4.0859999999997 0.4422665
4.0869999999997 0.4242433
4.0879999999997 0.4602898
4.0889999999997 0.4126569
4.0899999999997 0.4358297
4.0909999999997 0.5504062
4.0919999999997 0.6031886
4.0929999999997 0.6096255
4.0939999999997 0.7229147
4.0949999999997 0.7370758
4.0959999999997 0.7756971
4.0969999999997 0.8143184
4.0979999999997 0.8722504
4.0989999999997 0.8490776
4.0999999999997 0.8065942
4.1009999999997 0.7345011
4.1019999999997 0.683006
4.1029999999997 0.6714196
4.10399999999971 0.5529809
4.10499999999971 0.4898995
4.10599999999971 0.4538529
4.10699999999971 0.4757383
4.10799999999971 0.4512782
4.10899999999971 0.385622
4.10999999999971 0.4358297
4.11099999999971 0.5310955
4.11199999999971 0.5272334
4.11299999999971 0.6443847
4.11399999999971 0.6585458
4.11499999999971 0.7293516
4.11599999999971 0.7898583
4.11699999999971 0.8220427
4.11799999999971 0.8864115
4.11899999999971 0.8658135
4.11999999999971 0.7731224
4.12099999999971 0.813031
4.12199999999971 0.7448001
4.12299999999971 0.6765691
4.12399999999971 0.5581304
4.12499999999971 0.495049
4.12599999999971 0.4667267
4.12699999999971 0.40622
4.12799999999971 0.4036452
4.12899999999971 0.3984957
4.12999999999971 0.4783131
4.13099999999971 0.5349577
4.13199999999971 0.5504062
4.13299999999971 0.6636953
4.13399999999972 0.6778565
4.13499999999972 0.7550991
4.13599999999972 0.7795592
4.13699999999972 0.8040194
4.13799999999972 0.8387786
4.13899999999972 0.8773999
4.13999999999972 0.7962951
4.14099999999972 0.761536
4.14199999999972 0.7074661
4.14299999999972 0.6817186
4.14399999999972 0.5697168
4.14499999999972 0.5014859
4.14599999999972 0.4718762
4.14699999999972 0.4718762
4.14799999999972 0.4693015
4.14899999999972 0.3997831
4.14999999999972 0.4757383
4.15099999999972 0.5439693
4.15199999999972 0.6031886
4.15299999999972 0.6096255
4.15399999999972 0.7113283
4.15499999999972 0.7950078
4.15599999999972 0.8156058
4.15699999999972 0.8117437
4.15799999999972 0.8992853
4.15899999999972 0.8722504
4.15999999999972 0.8619514
4.16099999999972 0.8168932
4.16199999999972 0.7087535
4.16299999999972 0.6276488
4.16399999999973 0.5980391
4.16499999999973 0.5220839
4.16599999999973 0.5001985
4.16699999999973 0.4229559
4.16799999999973 0.447416
4.16899999999973 0.4087947
4.16999999999973 0.4525656
4.17099999999973 0.4963364
4.17199999999973 0.5555557
4.17299999999973 0.6173498
4.17399999999973 0.6958798
4.17499999999973 0.8104563
4.17599999999973 0.8580892
4.17699999999973 0.8310543
4.17799999999973 0.8465028
4.17899999999973 0.8876989
4.17999999999973 0.8465028
4.18099999999973 0.7885709
4.18199999999973 0.7641107
4.18299999999973 0.6868681
4.18399999999973 0.5916022
4.18499999999973 0.5220839
4.18599999999973 0.4770257
4.18699999999973 0.4602898
4.18799999999973 0.4757383
4.18899999999973 0.4242433
4.18999999999973 0.4731636
4.19099999999973 0.515647
4.19199999999973 0.6173498
4.19299999999973 0.6405226
4.19399999999974 0.7190525
4.19499999999974 0.7550991
4.19599999999974 0.8117437
4.19699999999974 0.8362038
4.19799999999974 0.8671009
4.19899999999974 0.8851241
4.19999999999974 0.8297669
4.20099999999974 0.7589612
4.20199999999974 0.7448001
4.20299999999974 0.6340857
4.20399999999974 0.6083381
4.20499999999974 0.5195091
4.20599999999974 0.4796005
4.20699999999974 0.5001985
4.20799999999974 0.474451
4.20899999999974 0.4654393
4.20999999999974 0.4577151
4.21099999999974 0.536245
4.21199999999974 0.594177
4.21299999999974 0.6585458
4.21399999999974 0.7679729
4.21499999999974 0.771835
4.21599999999974 0.8271922
4.21699999999974 0.8336291
4.21799999999974 0.9095843
4.21899999999974 0.8542271
4.21999999999974 0.8941358
4.22099999999974 0.7641107
4.22199999999974 0.7216273
4.22299999999975 0.6572585
4.22399999999975 0.6379478
4.22499999999975 0.5310955
4.22599999999975 0.48475
4.22699999999975 0.515647
4.22799999999975 0.437117
4.22899999999975 0.4345423
4.22999999999975 0.5220839
4.23099999999975 0.5349577
4.23199999999975 0.5993265
4.23299999999975 0.6701322
4.23399999999975 0.7306389
4.23499999999975 0.7937204
4.23599999999975 0.9031474
4.23699999999975 0.8941358
4.23799999999975 0.9173086
4.23899999999975 0.9198833
4.23999999999975 0.9070095
4.24099999999975 0.9005727
4.24199999999975 0.7576738
4.24299999999975 0.7653981
4.24399999999975 0.7319263
4.24499999999975 0.6392352
4.24599999999975 0.5954644
4.24699999999975 0.5401072
4.24799999999975 0.5813032
4.24899999999975 0.5800159
4.24999999999975 0.5439693
4.25099999999975 0.5980391
4.25199999999975 0.6778565
4.25299999999976 0.8104563
4.25399999999976 0.7950078
4.25499999999976 0.8580892
4.25599999999976 0.9147338
4.25699999999976 0.9945512
4.25799999999976 0.9430561
4.25899999999976 0.9688036
4.25999999999976 0.9353318
4.26099999999976 0.9237454
4.26199999999976 0.8065942
4.26299999999976 0.8156058
4.26399999999976 0.7100409
4.26499999999976 0.6430973
4.26599999999976 0.5890275
4.26699999999976 0.583878
4.26799999999976 0.604476
4.26899999999976 0.5722916
4.26999999999976 0.6276488
4.27099999999976 0.7177652
4.27199999999976 0.8091689
4.27299999999976 0.8735377
4.27399999999976 0.9173086
4.27499999999976 0.9327571
4.27599999999976 0.9997007
4.27699999999976 1.073081
4.27799999999976 1.091104
4.27899999999976 1.096254
4.27999999999976 1.060207
4.28099999999976 0.9971259
4.28199999999976 0.9173086
4.28299999999977 0.9224581
4.28399999999977 0.840066
4.28499999999977 0.7950078
4.28599999999977 0.6778565
4.28699999999977 0.6533963
4.28799999999977 0.6327983
4.28899999999977 0.6379478
4.28999999999977 0.6920176
4.29099999999977 0.7435127
4.29199999999977 0.8091689
4.29299999999977 0.8632387
4.29399999999977 0.8529397
4.29499999999977 0.9855395
4.29599999999977 0.9958385
4.29699999999977 1.046046
4.29799999999977 1.000988
4.29899999999977 0.98039
4.29999999999977 0.9572172
4.30099999999977 0.9108717
4.30199999999977 0.850365
4.30299999999977 0.8065942
4.30399999999977 0.7499496
4.30499999999977 0.6327983
4.30599999999977 0.5748663
4.30699999999977 0.5349577
4.30799999999977 0.5169344
4.30899999999977 0.5117849
4.30999999999977 0.5207965
4.31099999999977 0.6173498
4.31199999999977 0.6430973
4.31299999999978 0.703604
4.31399999999978 0.8246174
4.31499999999978 0.8104563
4.31599999999978 0.850365
4.31699999999978 0.9224581
4.31799999999978 0.8864115
4.31899999999978 0.9366192
4.31999999999978 0.8568019
4.32099999999978 0.8207553
4.32199999999978 0.7898583
4.32299999999978 0.6997419
4.32399999999978 0.6006139
4.32499999999978 0.5774411
4.32599999999978 0.4886121
4.32699999999978 0.437117
4.32799999999978 0.4911869
4.32899999999978 0.4487034
4.32999999999978 0.4924742
4.33099999999978 0.5349577
4.33199999999978 0.604476
4.33299999999978 0.6894429
4.33399999999978 0.6662701
4.33499999999978 0.7641107
4.33599999999978 0.8091689
4.33699999999978 0.8143184
4.33799999999978 0.8928484
4.33899999999978 0.881262
4.33999999999978 0.8619514
4.34099999999978 0.7589612
4.34199999999978 0.6997419
4.34299999999979 0.6495342
4.34399999999979 0.5967517
4.34499999999979 0.5684295
4.34599999999979 0.4512782
4.34699999999979 0.4384044
4.34799999999979 0.4435539
4.34899999999979 0.3869093
4.34999999999979 0.4332549
4.35099999999979 0.5298082
4.35199999999979 0.5439693
4.35299999999979 0.6418099
4.35399999999979 0.7422253
4.35499999999979 0.7229147
4.35599999999979 0.7911456
4.35699999999979 0.8194679
4.35799999999979 0.8452155
4.35899999999979 0.8349164
4.35999999999979 0.8156058
4.36099999999979 0.7628233
4.36199999999979 0.7370758
4.36299999999979 0.6521089
4.36399999999979 0.56328
4.36499999999979 0.5001985
4.36599999999979 0.4499908
4.36699999999979 0.4834626
4.36799999999979 0.4345423
4.36899999999979 0.4010705
4.36999999999979 0.4821752
4.37099999999979 0.5117849
4.37199999999979 0.6134876
4.3729999999998 0.6289362
4.3739999999998 0.6958798
4.3749999999998 0.7602486
4.3759999999998 0.7975825
4.3769999999998 0.8362038
4.3779999999998 0.8580892
4.3789999999998 0.8735377
4.3799999999998 0.8168932
4.3809999999998 0.792433
4.3819999999998 0.7473748
4.3829999999998 0.6456721
4.3839999999998 0.573579
4.3849999999998 0.5079228
4.3859999999998 0.4577151
4.3869999999998 0.4409792
4.3879999999998 0.4693015
4.3889999999998 0.4075074
4.3899999999998 0.447416
4.3909999999998 0.5027732
4.3919999999998 0.5761537
4.3929999999998 0.6224993
4.3939999999998 0.6920176
4.3949999999998 0.802732
4.3959999999998 0.8220427
4.3969999999998 0.8349164
4.3979999999998 0.8941358
4.3989999999998 0.8696756
4.3999999999998 0.840066
4.4009999999998 0.7975825
4.4019999999998 0.7151904
4.40299999999981 0.6649827
4.40399999999981 0.625074
4.40499999999981 0.5285208
4.40599999999981 0.4590024
4.40699999999981 0.4293928
4.40799999999981 0.4770257
4.40899999999981 0.4499908
4.40999999999981 0.48475
4.41099999999981 0.536245
4.41199999999981 0.6122003
4.41299999999981 0.7048914
4.41399999999981 0.8143184
4.41499999999981 0.8490776
4.41599999999981 0.9507804
4.41699999999981 0.970091
4.41799999999981 0.9881143
4.41899999999981 0.9958385
4.41999999999981 1.020299
4.42099999999981 0.9430561
4.42199999999981 0.9044348
4.42299999999981 0.9121591
4.42399999999981 0.9546425
4.42499999999981 0.8941358
4.42599999999981 0.9353318
4.42699999999981 1.057633
4.42799999999981 1.125864
4.42899999999981 1.208256
4.42999999999981 1.300947
4.43099999999981 1.514651
4.43199999999981 1.666562
4.43299999999982 1.803024
4.43399999999982 1.913738
4.43499999999982 2.029602
4.43599999999982 2.131305
4.43699999999982 2.121006
4.43799999999982 2.101695
4.43899999999982 2.09912
4.43999999999982 1.999992
4.44099999999982 1.912451
4.44199999999982 1.769552
4.44299999999982 1.63824
4.44399999999982 1.506927
4.44499999999982 1.356304
4.44599999999982 1.138737
4.44699999999982 1.087242
4.44799999999982 0.9276076
4.44899999999982 0.8001573
4.44999999999982 0.7357884
4.45099999999982 0.7795592
4.45199999999982 0.7061788
4.45299999999982 0.7460875
4.45399999999982 0.7705476
4.45499999999982 0.7345011
4.45599999999982 0.8001573
4.45699999999982 0.7962951
4.45799999999982 0.8374912
4.45899999999982 0.7808466
4.45999999999982 0.7525243
4.46099999999982 0.7576738
4.46199999999982 0.6533963
4.46299999999983 0.5761537
4.46399999999983 0.515647
4.46499999999983 0.474451
4.46599999999983 0.4306801
4.46699999999983 0.3740356
4.46799999999983 0.4178064
4.46899999999983 0.3688861
4.46999999999983 0.4422665
4.47099999999983 0.4783131
4.47199999999983 0.5967517
4.47299999999983 0.6327983
4.47399999999983 0.7319263
4.47499999999983 0.7628233
4.47599999999983 0.8259048
4.47699999999983 0.8490776
4.47799999999983 0.9005727
4.47899999999983 0.9340445
4.47999999999983 0.8284796
4.48099999999983 0.7589612
4.48199999999983 0.7460875
4.48299999999983 0.6521089
4.48399999999983 0.5813032
4.48499999999983 0.5104975
4.48599999999983 0.4641519
4.48699999999983 0.4203811
4.48799999999983 0.4178064
4.48899999999983 0.4538529
4.48999999999983 0.416519
4.49099999999983 0.5323829
4.49199999999983 0.604476
4.49299999999984 0.6199245
4.49399999999984 0.7061788
4.49499999999984 0.7254894
4.49599999999984 0.8387786
4.49699999999984 0.8040194
4.49799999999984 0.8426407
4.49899999999984 0.8323417
4.49999999999984 0.8143184
4.50099999999984 0.7486622
4.50199999999984 0.703604
4.50299999999984 0.6804312
4.50399999999984 0.6224993
4.50499999999984 0.5478314
4.50599999999984 0.5014859
4.50699999999984 0.4242433
4.50799999999984 0.4551403
4.50899999999984 0.4384044
4.50999999999984 0.4229559
4.51099999999984 0.5388198
4.51199999999984 0.5581304
4.51299999999984 0.6675575
4.51399999999984 0.6765691
4.51499999999984 0.7460875
4.51599999999984 0.8207553
4.51699999999984 0.8271922
4.51799999999984 0.9108717
4.51899999999984 0.8645261
4.51999999999984 0.8671009
4.52099999999984 0.7679729
4.52199999999984 0.6817186
4.52299999999985 0.672707
4.52399999999985 0.5890275
4.52499999999985 0.5207965
4.52599999999985 0.4770257
4.52699999999985 0.4422665
4.52799999999985 0.4178064
4.52899999999985 0.437117
4.52999999999985 0.4448413
4.53099999999985 0.5027732
4.53199999999985 0.573579
4.53299999999985 0.6289362
4.53399999999985 0.7061788
4.53499999999985 0.8168932
4.53599999999985 0.8658135
4.53699999999985 0.8542271
4.53799999999985 0.8387786
4.53899999999985 0.9327571
4.53999999999985 0.8387786
4.54099999999985 0.7769845
4.54199999999985 0.6971671
4.54299999999985 0.6585458
4.54399999999985 0.6122003
4.54499999999985 0.5272334
4.54599999999985 0.5117849
4.54699999999985 0.5117849
4.54799999999985 0.4989111
4.54899999999985 0.4216685
4.54999999999985 0.5310955
4.55099999999985 0.5671421
4.55199999999985 0.6031886
4.55299999999986 0.6752817
4.55399999999986 0.7370758
4.55499999999986 0.8426407
4.55599999999986 0.8722504
4.55699999999986 0.8580892
4.55799999999986 0.8851241
4.55899999999986 0.8902736
4.55999999999986 0.8632387
4.56099999999986 0.8078815
4.56199999999986 0.8194679
4.56299999999986 0.6945924
4.56399999999986 0.614775
4.56499999999986 0.5452567
4.56599999999986 0.4963364
4.56699999999986 0.4898995
4.56799999999986 0.4770257
4.56899999999986 0.4615772
4.56999999999986 0.4654393
4.57099999999986 0.5349577
4.57199999999986 0.5864527
4.57299999999986 0.6572585
4.57399999999986 0.7795592
4.57499999999986 0.7756971
4.57599999999986 0.8323417
4.57699999999986 0.8786873
4.57799999999986 0.9057222
4.57899999999986 0.9276076
4.57999999999986 0.8902736
4.58099999999986 0.8168932
4.58199999999986 0.7422253
4.58299999999987 0.683006
4.58399999999987 0.6186372
4.58499999999987 0.5645673
4.58599999999987 0.5658547
4.58699999999987 0.4834626
4.58799999999987 0.4808878
4.58899999999987 0.4615772
4.58999999999987 0.5542683
4.59099999999987 0.5594178
4.59199999999987 0.6224993
4.59299999999987 0.6868681
4.59399999999987 0.7563865
4.59499999999987 0.8156058
4.59599999999987 0.8580892
