0.0 -0.425000011921
0.00499 1.64999997616
0.00998 1.65408623219
0.01497 1.661288023
0.01996 1.39914095402
0.02495 1.17098855972
0.02994 1.12956559658
0.03493 1.09198999405
0.03992 0.775470137596
0.04491 0.467725098133
0.0499 0.294491320848
0.05489 0.309414565563
0.05988 0.0467063635588
0.06487 -0.250373780727
0.06986 -0.204992696643
0.07485 -0.225103765726
0.07984 -0.37977463007
0.08483 -0.581366717815
0.08982 -0.554507911205
0.09481 -0.568737149239
0.0998 -0.693200170994
0.10479 -0.777425706387
0.10978 -0.681401371956
0.11477 -0.612534403801
0.11976 -0.693322598934
0.12475 -0.75959956646
0.12974 -0.668950080872
0.13473 -0.592897236347
0.13972 -0.582383990288
0.14471 -0.655622184277
0.1497 -0.653398215771
0.15469 -0.521368443966
0.15968 -0.449842333794
0.16467 -0.46660387516
0.16966 -0.437340289354
0.17465 -0.286200106144
0.17964 -0.314738035202
0.18463 -0.399207681417
0.18962 -0.34675526619
0.19461 -0.17924618721
0.1996 -0.242613077164
0.20459 -0.281397134066
0.20958 -0.256679981947
0.21457 -0.194965869188
0.21956 -0.206862017512
0.22455 -0.364618510008
0.22954 -0.328184336424
0.23453 -0.175814285874
0.23952 -0.137622699142
0.24451 -0.30940258503
0.2495 -0.358339041471
0.25449 -0.278476119041
0.25948 -0.194525703788
0.26447 -0.283787190914
0.26946 -0.364728808403
0.27445 -0.327863484621
0.27944 -0.299055367708
0.28443 -0.506627738476
0.28942 -0.447943508625
0.29441 -0.382596939802
0.2994 -0.415309906006
0.30439 -0.527415931225
0.30938 -0.482922703028
0.31437 -0.387039363384
0.31936 -0.344532966614
0.32435 -0.473938912153
0.32934 -0.551489710808
0.33433 -0.537228822708
0.33932 -0.511840283871
0.34431 -0.537578940392
0.3493 -0.512418568134
0.35429 -0.377135753632
0.35928 -0.42670956254
0.36427 -0.557383060455
0.36926 -0.496431797743
0.37425 -0.419450253248
0.37924 -0.466826617718
0.38423 -0.479478955269
0.38922 -0.445259690285
0.39421 -0.408807992935
0.3992 -0.368772387505
0.40419 -0.465218126774
0.40918 -0.466432154179
0.41417 -0.385684221983
0.41916 -0.446708261967
0.42415 -0.327668905258
0.42914 -0.206392988563
0.43413 -0.137607946992
0.43912 -0.157352805138
0.44411 -0.14975002408
0.4491 -0.129955723882
0.45409 -0.0393131040037
0.45908 -0.00997400656343
0.46407 -0.109695024788
0.46906 -0.260440200567
0.47405 -0.114959016442
0.47904 -0.055790591985
0.48403 -0.0733544901013
0.48902 0.0792326331139
0.49401 0.00971386488527
0.499 -0.298801958561
0.50399 -0.440127879381
0.50898 -0.472634106874
0.51397 -0.446865737438
0.51896 -0.453057438135
0.52395 -0.403772830963
0.52894 -0.495449602604
0.53393 -0.457462728024
0.53892 -0.615498125553
0.54391 -0.676458716393
0.5489 -0.534845530987
0.55389 -0.451646119356
0.55888 -0.601978540421
0.56387 -0.62057107687
0.56886 -0.634050309658
0.57385 -0.554982423782
0.57884 -0.542767047882
0.58383 -0.545092046261
0.58882 -0.519178688526
0.59381 -0.554302692413
0.5988 -0.518716871738
0.60379 -0.508850216866
0.60878 -0.505585312843
0.61377 -0.417156994343
0.61876 -0.470402926207
0.62375 -0.506407558918
0.62874 0.308902353048
0.63373 1.35199642181
0.63872 2.62790346146
0.64371 3.51223707199
0.6487 3.6179292202
0.65369 2.62538123131
0.65868 0.615286052227
0.66367 -1.84251987934
0.66866 -4.02755498886
0.67365 -5.06671953201
0.67864 -4.80840158463
0.68363 -3.75212454796
0.68862 -2.90671539307
0.69361 -2.17120075226
0.6986 -1.57638895512
0.70359 -1.00919413567
0.70858 -0.526614427567
0.71357 -0.264556378126
0.71856 -0.0563192516565
0.72355 0.0838132128119
0.72854 0.128966927528
0.73353 0.16509988904
0.73852 0.108178958297
0.74351 0.122743830085
0.7485 0.178753837943
0.75349 0.262711405754
0.75848 0.19524666667
0.76347 0.114272996783
0.76846 0.21746198833
0.77345 0.184788301587
0.77844 0.219263836741
0.78343 0.251280605793
0.78842 0.329499930143
0.79341 0.384221702814
0.7984 0.467476278543
0.80339 0.402492523193
0.80838 0.433492362499
0.81337 0.459185600281
0.81836 0.465132445097
0.82335 0.625143885612
0.82834 0.694079458714
0.83333 0.772458791733
0.83832 0.778565824032
0.84331 0.826010704041
0.8483 0.845601975918
0.85329 0.983846306801
0.85828 1.13616430759
0.86327 1.26089167595
0.86826 1.47102475166
0.87325 1.53436267376
0.87824 1.5636048317
0.88323 1.63791024685
0.88822 1.75813150406
0.89321 1.94415438175
0.8982 1.92512273788
0.90319 1.96670997143
0.90818 2.02300477028
0.91317 1.99465358257
0.91816 1.93916845322
0.92315 1.85626745224
0.92814 1.82487475872
0.93313 1.62186264992
0.93812 1.40530109406
0.94311 1.25789916515
0.9481 1.11188662052
0.95309 0.897559642792
0.95808 0.58289372921
0.96307 0.508010864258
0.96806 0.272457063198
0.97305 0.0740045309067
0.97804 -0.0554559268057
0.98303 -0.268819659948
0.98802 -0.326972395182
0.99301 -0.403584212065
0.998 -0.471199840307
1.00299 -0.556552410126
1.00798 -0.55159842968
1.01297 -0.530778169632
1.01796 -0.561144828796
1.02295 -0.580956637859
1.02794 -0.599786102772
1.03293 -0.519414067268
1.03792 -0.563682019711
1.04291 -0.555070161819
1.0479 -0.523504376411
1.05289 -0.569114267826
1.05788 -0.502232313156
1.06287 -0.433113098145
1.06786 -0.460050731897
1.07285 -0.465814352036
1.07784 -0.465284615755
1.08283 -0.360955446959
1.08782 -0.335931628942
1.09281 -0.338898360729
1.0978 -0.241048514843
1.10279 -0.31172645092
1.10778 -0.245608136058
1.11277 -0.128215461969
1.11776 -0.254800975323
1.12275 -0.220562919974
1.12774 -0.170762807131
1.13273 -0.0935219973326
1.13772 -0.0812628343701
1.14271 -0.155796304345
1.1477 -0.240472376347
1.15269 -0.205440476537
1.15768 -0.198251515627
1.16267 -0.268831282854
1.16766 -0.225530743599
1.17265 -0.305079072714
1.17764 -0.348046392202
1.18263 -0.356814950705
1.18762 -0.314153879881
1.19261 -0.342858016491
1.1976 -0.323692679405
1.20259 -0.418653517962
1.20758 -0.26390644908
1.21257 -0.196825295687
1.21756 -0.323221206665
1.22255 -0.375580191612
1.22754 -0.301251530647
1.23253 -0.3000690341
1.23752 -0.237816303968
1.24251 -0.386318296194
1.2475 -0.408594489098
1.25249 -0.449559539557
1.25748 -0.515198349953
1.26247 -0.425985455513
1.26746 -0.410533487797
1.27245 -0.398833721876
1.27744 -0.414895147085
1.28243 -0.401331722736
1.28742 -0.323164016008
1.29241 -0.348918408155
1.2974 -0.388823151588
1.30239 -0.388173878193
1.30738 -0.373032301664
1.31237 -0.398566126823
1.31736 -0.389707952738
1.32235 -0.426204144955
1.32734 -0.35986495018
1.33233 -0.374021977186
1.33732 -0.365562409163
1.34231 -0.363867580891
1.3473 -0.309451371431
1.35229 -0.163739979267
1.35728 -0.119175612926
1.36227 -0.124745234847
1.36726 0.0546762235463
1.37225 0.059746760875
1.37724 0.0447295382619
1.38223 0.0647221878171
1.38722 0.018875753507
1.39221 -0.0253754537553
1.3972 -0.092804864049
1.40219 0.0118854613975
1.40718 0.176735624671
1.41217 0.087270706892
1.41716 0.0372122488916
1.42215 -0.023433258757
1.42714 -0.232208520174
1.43213 -0.222900703549
1.43712 -0.218588799238
1.44211 -0.251957654953
1.4471 -0.193499088287
1.45209 -0.235263794661
1.45708 -0.379130870104
1.46207 -0.399880468845
1.46706 -0.419327527285
1.47205 -0.461013764143
1.47704 -0.455573678017
1.48203 -0.537960469723
1.48702 -0.542097210884
1.49201 -0.425617396832
1.497 -0.398164778948
1.50199 -0.350828289986
1.50698 -0.339383244514
1.51197 -0.360880464315
1.51696 -0.274669706821
1.52195 -0.278246432543
1.52694 -0.397549390793
1.53193 -0.406555444002
1.53692 -0.402835786343
1.54191 -0.430845409632
1.5469 -0.544037997723
1.55189 0.0120437955484
1.55688 1.05548858643
1.56187 2.4728307724
1.56686 4.00954818726
1.57185 4.22305822372
1.57684 3.36059689522
1.58183 1.69006538391
1.58682 -0.893232703209
1.59181 -3.42062783241
1.5968 -4.97850227356
1.60179 -4.78095531464
1.60678 -3.81213092804
1.61177 -2.85976290703
1.61676 -2.1754617691
1.62175 -1.58468484879
1.62674 -0.991883158684
1.63173 -0.469644039869
1.63672 -0.208403080702
1.64171 -0.098957285285
1.6467 0.00570481782779
1.65169 0.145438551903
1.65668 0.264479637146
1.66167 0.313896536827
1.66666 0.371804386377
1.67165 0.249825745821
1.67664 0.180458635092
1.68163 0.212798416615
1.68662 0.244060829282
1.69161 0.372401624918
1.6966 0.365703970194
1.70159 0.266232818365
1.70658 0.384491354227
1.71157 0.431349605322
1.71656 0.328037649393
1.72155 0.344471335411
1.72654 0.408682823181
1.73153 0.453966259956
1.73652 0.624483942986
1.74151 0.617761015892
1.7465 0.675062835217
1.75149 0.767426908016
1.75648 0.7846570611
1.76147 0.830767631531
1.76646 0.975073158741
1.77145 1.07774305344
1.77644 1.09678804874
1.78143 1.23135662079
1.78642 1.36158394814
1.79141 1.45236551762
1.7964 1.52196955681
1.80139 1.76648032665
1.80638 1.8107663393
1.81137 1.91809689999
1.81636 2.08329415321
1.82135 2.02872633934
1.82634 2.0666000843
1.83133 2.10692763329
1.83632 2.06915736198
1.84131 2.0057156086
1.8463 1.90805828571
1.85129 1.80938029289
1.85628 1.73069310188
1.86127 1.55584084988
1.86626 1.39942932129
1.87125 1.21186900139
1.87624 0.931736469269
1.88123 0.658481180668
1.88622 0.537330210209
1.89121 0.371265232563
1.8962 0.179982572794
1.90119 -0.00337627786212
1.90618 -0.099884070456
1.91117 -0.205408737063
1.91616 -0.309858441353
1.92115 -0.33042678237
1.92614 -0.388064056635
1.93113 -0.540580093861
1.93612 -0.559620499611
1.94111 -0.596213281155
1.9461 -0.601276397705
1.95109 -0.578310549259
1.95608 -0.599113583565
1.96107 -0.633483469486
1.96606 -0.624521434307
1.97105 -0.554487228394
1.97604 -0.539692521095
1.98103 -0.619687199593
1.98602 -0.546744942665
1.99101 -0.395599395037
1.996 -0.442854195833
2.00099 -0.453770458698
2.00598 -0.357597202063
2.01097 -0.310310155153
2.01596 -0.22011898458
2.02095 -0.1058332026
2.02594 -0.044427536428
2.03093 -0.106118611991
2.03592 0.00550310546532
2.04091 -0.15607598424
2.0459 -0.213804543018
2.05089 -0.155794844031
2.05588 -0.0887595266104
2.06087 -0.0218352619559
2.06586 -0.0856148228049
2.07085 -0.0767026245594
2.07584 -0.0653071850538
2.08083 -0.135394781828
2.08582 -0.108316414058
2.09081 -0.114304356277
2.0958 -0.104823462665
2.10079 -0.123573578894
2.10578 -0.0946445167065
2.11077 -0.113449901342
2.11576 -0.179585322738
2.12075 -0.235118225217
2.12574 -0.157519578934
2.13073 -0.202226787806
2.13572 -0.241692766547
2.14071 -0.222909480333
2.1457 -0.29421377182
2.15069 -0.300145715475
2.15568 -0.342990756035
2.16067 -0.374100774527
2.16566 -0.30677357316
2.17065 -0.252087056637
2.17564 -0.40466979146
2.18063 -0.346819996834
2.18562 -0.296221882105
2.19061 -0.303142011166
2.1956 -0.304150730371
2.20059 -0.334286749363
2.20558 -0.430529296398
2.21057 -0.352144956589
2.21556 -0.370867788792
2.22055 -0.446770578623
2.22554 -0.316643625498
2.23053 -0.304699599743
2.23552 -0.308981597424
2.24051 -0.406630635262
2.2455 -0.401206463575
2.25049 -0.355856150389
2.25548 -0.300868093967
2.26047 -0.430918842554
2.26546 -0.286016613245
2.27045 -0.246206626296
2.27544 -0.203350380063
2.28043 -0.0450344905257
2.28542 0.0500365830958
2.29041 0.0442401170731
2.2954 -0.0122329285368
2.30039 0.116474963725
2.30538 0.135507553816
2.31037 0.158410295844
2.31536 0.0894979760051
2.32035 -0.0433744005859
2.32534 0.110820926726
2.33033 0.104126468301
2.33532 0.211836010218
2.34031 0.242951661348
2.3453 0.139859586954
2.35029 0.0481976345181
2.35528 -0.173062816262
2.36027 -0.219519361854
2.36526 -0.237648233771
2.37025 -0.229579269886
2.37524 -0.29940906167
2.38023 -0.467130720615
2.38522 -0.44736623764
2.39021 -0.444851607084
2.3952 -0.465300649405
2.40019 -0.504616081715
2.40518 -0.569618880749
2.41017 -0.506917834282
2.41516 -0.531393766403
2.42015 -0.469094574451
2.42514 -0.493298500776
2.43013 -0.541344881058
2.43512 -0.519184291363
2.44011 -0.509567558765
2.4451 -0.529744744301
2.45009 -0.563635766506
2.45508 -0.50845760107
2.46007 -0.524895787239
2.46506 -0.429415017366
2.47005 -0.561110913754
2.47504 -0.494915008545
2.48003 0.284729003906
2.48502 1.56273210049
2.49001 3.12013077736
2.495 4.00883293152
2.49999 3.26259636879
2.50498 2.1694355011
2.50997 0.112129770219
2.51496 -2.58230638504
2.51995 -4.73476791382
2.52494 -5.22286272049
2.52993 -4.42939662933
2.53492 -3.3185312748
2.53991 -2.50029754639
2.5449 -1.85258197784
2.54989 -1.24287414551
2.55488 -0.678738594055
2.55987 -0.260676324368
2.56486 -0.128985464573
2.56985 -0.115696564317
2.57484 -0.0111358389258
2.57983 0.0620423145592
2.58482 0.183801367879
2.58981 0.125230938196
2.5948 0.190235301852
2.59979 0.369946748018
2.60478 0.308495640755
2.60977 0.282121777534
2.61476 0.106336064637
2.61975 0.267195135355
2.62474 0.352881163359
2.62973 0.307807326317
2.63472 0.28480219841
2.63971 0.365326881409
2.6447 0.450619995594
2.64969 0.495683461428
2.65468 0.534573614597
2.65967 0.564657926559
2.66466 0.676119208336
2.66965 0.708534479141
2.67464 0.672856390476
2.67963 0.776736795902
2.68462 0.87429279089
2.68961 0.872114419937
2.6946 0.91145581007
2.69959 1.14726805687
2.70458 1.19667947292
2.70957 1.36199378967
2.71456 1.42336380482
2.71955 1.59530198574
2.72454 1.6972014904
2.72953 1.85058104992
2.73452 1.91031849384
2.73951 2.00768208504
2.7445 2.11118412018
2.74949 2.07844305038
2.75448 1.98903310299
2.75947 2.15603327751
2.76446 2.10869574547
2.76945 1.94699561596
2.77444 1.80695283413
2.77943 1.80361175537
2.78442 1.65767681599
2.78941 1.36575472355
2.7944 1.27210307121
2.79939 1.03808188438
2.80438 0.896436393261
2.80937 0.668091654778
2.81436 0.496450722218
2.81935 0.237742573023
2.82434 0.134756311774
2.82933 -0.0942797362804
2.83432 -0.241861209273
2.83931 -0.327654451132
2.8443 -0.404790788889
2.84929 -0.395330280066
2.85428 -0.469577312469
2.85927 -0.565003812313
2.86426 -0.590132772923
2.86925 -0.534426808357
2.87424 -0.597577750683
2.87923 -0.565565764904
2.88422 -0.576853752136
2.88921 -0.546184837818
2.8942 -0.536611914635
2.89919 -0.60341411829
2.90418 -0.599003970623
2.90917 -0.534098803997
2.91416 -0.478244066238
2.91915 -0.381386935711
2.92414 -0.409547805786
2.92913 -0.367828190327
2.93412 -0.231182441115
2.93911 -0.124226294458
2.9441 -0.0830337107182
2.94909 -0.087985791266
2.95408 -0.203065097332
2.95907 -0.112358309329
2.96406 -0.0733710899949
2.96905 -0.148720771074
2.97404 -0.224705412984
2.97903 -0.238047331572
2.98402 -0.200026080012
2.98901 -0.125353038311
2.994 -0.151222124696
2.99899 -0.137674972415
3.00398 -0.135901272297
3.00897 -0.173392698169
3.01396 -0.201024353504
3.01895 -0.226460859179
3.02394 -0.247587159276
3.02893 -0.210376739502
3.03392 -0.252753049135
3.03891 -0.313665837049
3.0439 -0.271268695593
3.04889 -0.236606910825
3.05388 -0.303633660078
3.05887 -0.325156718493
3.06386 -0.320394128561
3.06885 -0.323888480663
3.07384 -0.452878504992
3.07883 -0.511238217354
3.08382 -0.37260222435
3.08881 -0.426589399576
3.0938 -0.365373760462
3.09879 -0.33792886138
3.10378 -0.272877126932
3.10877 -0.385365009308
3.11376 -0.388159573078
3.11875 -0.328635424376
3.12374 -0.2877343297
3.12873 -0.111386880279
3.13372 -0.275405466557
3.13871 -0.36034026742
3.1437 -0.310809165239
3.14869 -0.400556236506
3.15368 -0.252987861633
3.15867 -0.141707390547
3.16366 -0.283406168222
3.16865 -0.292474746704
3.17364 -0.291819036007
3.17863 -0.307945996523
3.18362 -0.282677412033
3.18861 -0.340571731329
3.1936 -0.36632591486
3.19859 -0.212107524276
3.20358 -0.161321073771
3.20857 -0.0889677032828
3.21356 -0.0779251530766
3.21855 -0.07452455163
3.22354 0.125202551484
3.22853 0.220598846674
3.23352 0.21035644412
3.23851 0.142242848873
3.2435 0.091942563653
3.24849 0.0106084253639
3.25348 0.14421634376
3.25847 0.0750057920814
3.26346 0.106796287
3.26845 0.0880690291524
3.27344 0.055996529758
3.27843 -0.0984607040882
3.28342 -0.213710039854
3.28841 -0.358956933022
3.2934 -0.285453915596
3.29839 -0.218963131309
3.30338 -0.153589829803
3.30837 -0.254536271095
3.31336 -0.454438835382
3.31835 -0.566138386726
3.32334 -0.46961709857
3.32833 -0.422570884228
3.33332 -0.455836296082
3.33831 -0.464859157801
3.3433 -0.394455581903
3.34829 -0.31154820323
3.35328 -0.393351525068
3.35827 -0.609355986118
3.36326 -0.541055798531
3.36825 -0.356049954891
3.37324 -0.38668847084
3.37823 -0.36941125989
3.38322 -0.375298380852
3.38821 -0.293254107237
3.3932 -0.399654746056
3.39819 -0.467165738344
3.40318 -0.399609804153
3.40817 0.318240404129
3.41316 1.50618839264
3.41815 3.00003790855
3.42314 4.08936786652
3.42813 4.1432890892
3.43312 3.16044163704
3.43811 1.15181207657
3.4431 -1.35144579411
3.44809 -3.94443678856
3.45308 -5.06332588196
3.45807 -4.80294036865
3.46306 -3.66863322258
3.46805 -2.87498497963
3.47304 -2.15432453156
3.47803 -1.63187217712
3.48302 -0.889525413513
3.48801 -0.497372835875
3.493 -0.208922594786
3.49799 -0.0478725060821
3.50298 0.0551866926253
3.50797 0.0717058777809
3.51296 0.118362270296
3.51795 0.163535892963
3.52294 0.107145406306
3.52793 0.112953998148
3.53292 0.0680328309536
3.53791 0.222013562918
3.5429 0.254302620888
3.54789 0.302322894335
3.55288 0.368364363909
3.55787 0.309152901173
3.56286 0.320107191801
3.56785 0.414763331413
3.57284 0.341490924358
3.57783 0.372461766005
3.58282 0.493782937527
3.58781 0.562542021275
3.5928 0.566897392273
3.59779 0.487612366676
3.60278 0.546065330505
3.60777 0.684751689434
3.61276 0.626930654049
3.61775 0.455302506685
3.62274 0.635588169098
3.62773 0.888303935528
3.63272 1.09377002716
3.63771 1.0945930481
3.6427 1.17975330353
3.64769 1.30234777927
3.65268 1.48924386501
3.65767 1.54228365421
3.66266 1.71926140785
3.66765 1.95122039318
3.67264 1.975284338
3.67763 1.99622368813
3.68262 2.07262468338
3.68761 2.12653756142
3.6926 2.03890562057
3.69759 1.98630392551
3.70258 2.03560876846
3.70757 1.85316729546
3.71256 1.77954983711
3.71755 1.62374663353
3.72254 1.46261370182
3.72753 1.25718724728
3.73252 1.01835799217
3.73751 0.71259188652
3.7425 0.551615774632
3.74749 0.393056094646
3.75248 0.203260272741
3.75747 0.122756510973
3.76246 -0.122693508863
3.76745 -0.277996212244
3.77244 -0.34901419282
3.77743 -0.457349300385
3.78242 -0.559508025646
3.78741 -0.577107727528
3.7924 -0.590127408504
3.79739 -0.610451221466
3.80238 -0.682694077492
3.80737 -0.711720108986
3.81236 -0.606066942215
3.81735 -0.68921238184
3.82234 -0.741078734398
3.82733 -0.647673130035
3.83232 -0.647936999798
3.83731 -0.628243327141
3.8423 -0.528278648853
3.84729 -0.497627019882
3.85228 -0.571160972118
3.85727 -0.502940714359
3.86226 -0.516566932201
3.86725 -0.50830322504
3.87224 -0.447149813175
3.87723 -0.44341686368
3.88222 -0.353760242462
3.88721 -0.4552770257
3.8922 -0.444933831692
3.89719 -0.408652096987
3.90218 -0.343628674746
3.90717 -0.365936934948
3.91216 -0.35632827878
3.91715 -0.347579360008
3.92214 -0.257245063782
3.92713 -0.277489334345
3.93212 -0.267783850431
3.93711 -0.322554439306
3.9421 -0.355345308781
3.94709 -0.437044709921
3.95208 -0.431062996387
3.95707 -0.377095937729
3.96206 -0.41863283515
3.96705 -0.470317572355
3.97204 -0.394317895174
3.97703 -0.467912316322
3.98202 -0.405016988516
3.98701 -0.419234663248
3.992 -0.456732273102
3.99699 -0.517390489578
4.00198 -0.52908962965
4.00697 -0.518908143044
4.01196 -0.53335750103
4.01695 -0.506937086582
4.02194 -0.516383349895
4.02693 -0.529038250446
4.03192 -0.533347308636
4.03691 -0.423297643661
4.0419 -0.442613184452
4.04689 -0.523973286152
4.05188 -0.494056195021
4.05687 -0.514332056046
4.06186 -0.505289793015
4.06685 -0.497276574373
4.07184 -0.482541441917
4.07683 -0.490990966558
4.08182 -0.381117731333
4.08681 -0.359974324703
4.0918 -0.332196623087
4.09679 -0.414888054132
4.10178 -0.30532476306
4.10677 -0.187642514706
4.11176 -0.208825781941
4.11675 -0.175865754485
4.12174 -0.178826034069
4.12673 -0.185474529862
4.13172 -0.282160609961
4.13671 -0.288674563169
4.1417 -0.16926689446
4.14669 0.0345413647592
4.15168 -0.0208178013563
4.15667 -0.0589718036354
4.16166 -0.102602154016
4.16665 -0.323351681232
4.17164 -0.33137395978
4.17663 -0.351934164762
4.18162 -0.36765474081
4.18661 -0.38396653533
4.1916 -0.431357145309
4.19659 -0.613085746765
4.20158 -0.775175750256
4.20657 -0.67218619585
4.21156 -0.65164911747
4.21655 -0.604514837265
4.22154 -0.610978662968
4.22653 -0.692824304104
4.23152 -0.650753974915
4.23651 -0.633729636669
4.2415 -0.562648594379
4.24649 -0.49228361249
4.25148 -0.513065576553
4.25647 -0.545071601868
4.26146 -0.499203771353
4.26645 -0.455152958632
4.27144 -0.426899582148
4.27643 -0.433427929878
4.28142 -0.459681630135
4.28641 -0.501800775528
4.2914 -0.354423701763
4.29639 0.620668530464
4.30138 1.78287279606
4.30637 3.45928549767
4.31136 4.55878257751
4.31635 4.29929733276
4.32134 3.37066459656
4.32633 0.596412062645
4.33132 -2.44146060944
4.33631 -4.5520401001
4.3413 -5.23690223694
4.34629 -4.56937980652
4.35128 -3.636500597
4.35627 -2.90608024597
4.36126 -2.27092003822
4.36625 -1.57543206215
4.37124 -0.937178969383
4.37623 -0.504515707493
4.38122 -0.186706081033
4.38621 -0.0638818219304
4.3912 -0.0777115747333
4.39619 0.0117530776188
4.40118 0.0509106405079
4.40617 0.112573981285
4.41116 0.0365423299372
4.41615 0.123762249947
4.42114 0.186261385679
4.42613 0.139347106218
4.43112 0.176095440984
4.43611 0.15932071209
4.4411 0.272501468658
4.44609 0.215602323413
4.45108 0.289391964674
4.45607 0.294583648443
4.46106 0.261114597321
4.46605 0.330637663603
4.47104 0.300412118435
4.47603 0.318459331989
4.48102 0.496505618095
4.48601 0.553515136242
4.491 0.564437687397
4.49599 0.582317650318
4.50098 0.683582603931
4.50597 0.765370130539
4.51096 0.826070189476
4.51595 0.93066573143
4.52094 1.05749988556
4.52593 1.20291495323
4.53092 1.32496106625
4.53591 1.39249408245
4.5409 1.43529415131
4.54589 1.67818117142
4.55088 1.73395931721
4.55587 1.87930214405
4.56086 1.96169888973
4.56585 2.01846337318
4.57084 2.07284235954
4.57583 2.02938842773
4.58082 1.96553015709
4.58581 1.89767634869
4.5908 1.8231048584
4.59579 1.70353484154
4.60078 1.5308508873
4.60577 1.42605817318
4.61076 1.14933824539
4.61575 0.967162132263
4.62074 0.768880069256
4.62573 0.601708173752
4.63072 0.349806159735
4.63571 0.166541263461
4.6407 0.0303353071213
4.64569 -0.0250630043447
4.65068 -0.164885252714
4.65567 -0.407260775566
4.66066 -0.442855775356
4.66565 -0.428698897362
4.67064 -0.469188332558
4.67563 -0.545206785202
4.68062 -0.554021060467
4.68561 -0.565697610378
4.6906 -0.595221340656
4.69559 -0.695438444614
4.70058 -0.665650129318
4.70557 -0.616971194744
4.71056 -0.671620726585
4.71555 -0.608837366104
4.72054 -0.579349935055
4.72553 -0.602474570274
4.73052 -0.558362782001
4.73551 -0.450649321079
4.7405 -0.369244754314
4.74549 -0.386686593294
4.75048 -0.306714832783
4.75547 -0.352175116539
4.76046 -0.25628092885
4.76545 -0.272953480482
4.77044 -0.231624230742
4.77543 -0.204003050923
4.78042 -0.0460900217295
4.78541 0.00175568158738
4.7904 -0.152352780104
4.79539 -0.174862861633
4.80038 -0.049052875489
4.80537 -0.0264957007021
4.81036 -0.0387587361038
4.81535 -0.0121666332707
4.82034 -0.0730237513781
4.82533 -0.0487743057311
4.83032 -0.0401193089783
4.83531 -0.07671751827
4.8403 -0.145526751876
4.84529 -0.146150887012
4.85028 -0.12978425622
4.85527 -0.166922196746
4.86026 -0.14477391541
4.86525 -0.231004431844
4.87024 -0.290429323912
4.87523 -0.183089718223
4.88022 -0.22292162478
4.88521 -0.190732002258
4.8902 -0.214705124497
4.89519 -0.222123518586
4.90018 -0.210161909461
4.90517 -0.27595448494
4.91016 -0.214728936553
4.91515 -0.225680470467
4.92014 -0.185551837087
4.92513 -0.112563826144
4.93012 -0.152479588985
4.93511 -0.248660936952
4.9401 -0.245846778154
4.94509 -0.22561442852
4.95008 -0.266292691231
4.95507 -0.237539559603
4.96006 -0.332450091839
4.96505 -0.236363112926
4.97004 -0.231585994363
4.97503 -0.177934736013
4.98002 -0.120028525591
4.98501 -0.0234770998359
4.99 0.0424084961414
4.99499 0.0586739778519
4.99998 0.106598637998
5.00497 0.104046285152
5.00996 0.167328700423
5.01495 0.168863296509
5.01994 0.0470431223512
5.02493 0.0588375367224
5.02992 0.200464338064
5.03491 0.200326651335
5.0399 0.22406218946
5.04489 0.188274785876
5.04988 0.0904675275087
5.05487 -0.035778529942
5.05986 -0.09993814677
5.06485 -0.099649168551
5.06984 -0.22304944694
5.07483 -0.175078094006
5.07982 -0.288312643766
5.08481 -0.395283937454
5.0898 -0.507989287376
5.09479 -0.503756523132
5.09978 -0.492036551237
5.10477 -0.421315997839
5.10976 -0.384426623583
5.11475 -0.429357141256
5.11974 -0.427216768265
5.12473 -0.345753967762
5.12972 -0.250380247831
5.13471 -0.244237691164
5.1397 -0.286464333534
5.14469 -0.217528045177
5.14968 -0.251421332359
5.15467 -0.294656932354
5.15966 -0.236229658127
5.16465 -0.193296089768
5.16964 -0.213975712657
5.17463 -0.330448716879
5.17962 0.1212387532
5.18461 1.26853477955
5.1896 2.66282200813
5.19459 4.15821456909
5.19958 4.67820167542
5.20457 3.71026086807
5.20956 2.28307390213
5.21455 -0.372547924519
5.21954 -3.14690589905
5.22453 -4.91537809372
5.22952 -4.9348192215
5.23451 -3.80107688904
5.2395 -2.76053118706
5.24449 -2.11075329781
5.24948 -1.47104454041
5.25447 -0.797837972641
5.25946 -0.309763014317
5.26445 0.0357978269458
5.26944 0.0543364621699
5.27443 0.136581018567
5.27942 0.279214948416
5.28441 0.397627353668
5.2894 0.344870299101
5.29439 0.32733258605
5.29938 0.366813480854
5.30437 0.434261411428
5.30936 0.370718747377
5.31435 0.279532879591
5.31934 0.415618687868
5.32433 0.443642765284
5.32932 0.372626304626
5.33431 0.319670945406
5.3393 0.450689166784
5.34429 0.527770221233
5.34928 0.609294593334
5.35427 0.594914913177
5.35926 0.72578305006
5.36425 0.827007770538
5.36924 0.773321688175
5.37423 0.723292589188
5.37922 0.862145006657
5.38421 0.960968136787
5.3892 0.973356246948
5.39419 1.11022078991
5.39918 1.2219170332
5.40417 1.33651816845
5.40916 1.39984226227
5.41415 1.53371703625
5.41914 1.59604382515
5.42413 1.72586190701
5.42912 1.88624894619
5.43411 1.93151390553
5.4391 2.03515625
5.44409 2.1647131443
5.44908 2.16202759743
5.45407 2.13375759125
5.45906 2.30929875374
5.46405 2.27628922462
5.46904 2.15476465225
5.47403 2.05029439926
5.47902 1.98417162895
5.48401 1.77894437313
5.489 1.63324069977
5.49399 1.41264891624
5.49898 1.27152681351
5.50397 1.04348266125
5.50896 0.785903692245
5.51395 0.550538122654
5.51894 0.394760340452
5.52393 0.267149060965
5.52892 0.0606602281332
5.53391 -0.148979395628
5.5389 -0.243523389101
5.54389 -0.346866965294
5.54888 -0.391222298145
5.55387 -0.51368021965
5.55886 -0.494648486376
5.56385 -0.510226309299
5.56884 -0.553907811642
5.57383 -0.626052856445
5.57882 -0.570772171021
5.58381 -0.499769806862
5.5888 -0.492471247911
5.59379 -0.599293529987
5.59878 -0.568773090839
5.60377 -0.537988960743
5.60876 -0.494403213263
5.61375 -0.574578762054
5.61874 -0.591517210007
5.62373 -0.500395178795
5.62872 -0.533895552158
5.63371 -0.426444888115
5.6387 -0.245699569583
5.64369 -0.213389724493
5.64868 -0.216914534569
5.65367 -0.20010638237
5.65866 -0.245266467333
5.66365 -0.137387871742
5.66864 -0.131218165159
5.67363 -0.0646072998643
5.67862 -0.0576534643769
5.68361 0.0142759177834
5.6886 -0.0177248194814
5.69359 0.0222019553185
5.69858 -0.0199933629483
5.70357 -0.106753528118
5.70856 -0.152591764927
5.71355 -0.192693591118
5.71854 -0.135364890099
5.72353 -0.132309019566
5.72852 -0.163846701384
5.73351 -0.266355007887
5.7385 -0.296690583229
5.74349 -0.183932676911
5.74848 -0.302833944559
5.75347 -0.363961011171
5.75846 -0.383460909128
5.76345 -0.310810059309
5.76844 -0.255655318499
5.77343 -0.314883559942
5.77842 -0.293845117092
5.78341 -0.309153586626
5.7884 -0.317865639925
5.79339 -0.402599900961
5.79838 -0.270461887121
5.80337 -0.273397684097
5.80836 -0.389757305384
5.81335 -0.547943294048
5.81834 -0.446823239326
5.82333 -0.267885118723
5.82832 -0.24353441596
5.83331 -0.29495832324
5.8383 -0.305547952652
5.84329 -0.316147178411
5.84828 -0.294264316559
5.85327 -0.346622049809
5.85826 -0.330218017101
5.86325 -0.216866150498
5.86824 -0.282694429159
5.87323 -0.270566642284
5.87822 -0.2307035923
5.88321 -0.15523853898
5.8882 -0.145356789231
5.89319 0.0142017500475
5.89818 0.0667861700058
5.90317 0.147053331137
5.90816 0.156942009926
5.91315 -0.0326658599079
5.91814 -0.0538218095899
5.92313 -0.0535613931715
5.92812 0.0154584944248
5.93311 0.100198403001
5.9381 0.0955036431551
5.94309 0.100659772754
5.94808 -0.116929747164
5.95307 -0.270634710789
5.95806 -0.280575960875
5.96305 -0.19207175076
5.96804 -0.170846939087
5.97303 -0.331533432007
5.97802 -0.486696332693
5.98301 -0.514403283596
5.988 -0.672373950481
5.99299 -0.560493350029
5.99798 -0.51750844717
6.00297 -0.526370704174
6.00796 -0.580993771553
6.01295 -0.536592543125
6.01794 -0.483018249273
6.02293 -0.426514595747
6.02792 -0.454483687878
6.03291 -0.485715478659
6.0379 -0.519471824169
6.04289 -0.438881486654
6.04788 -0.431464254856
6.05287 -0.498359292746
6.05786 -0.455644607544
6.06285 -0.549678981304
6.06784 -0.690133392811
6.07283 -0.35400891304
6.07782 0.680800616741
6.08281 2.07843494415
6.0878 3.5847890377
6.09279 4.35781908035
6.09778 3.52639913559
6.10277 2.28673028946
6.10776 -0.107018172741
6.11275 -2.9667840004
6.11774 -4.98941421509
6.12273 -5.19459247589
6.12772 -4.13398313522
6.13271 -3.0386531353
6.1377 -2.38006258011
6.14269 -1.69286179543
6.14768 -1.00307154655
6.15267 -0.526242733002
6.15766 -0.221888527274
6.16265 -0.0795652195811
6.16764 -0.0553249269724
6.17263 0.039076436311
6.17762 0.176258265972
6.18261 0.209267199039
6.1876 0.11253298074
6.19259 0.214470520616
6.19758 0.27196636796
6.20257 0.285360008478
6.20756 0.241263121367
6.21255 0.251472651958
6.21754 0.356397300959
6.22253 0.347901672125
6.22752 0.319396167994
6.23251 0.338525354862
6.2375 0.465231478214
6.24249 0.460372418165
6.24748 0.447696745396
6.25247 0.52483946085
6.25746 0.586949944496
6.26245 0.69814157486
6.26744 0.735741794109
6.27243 0.749649226665
6.27742 0.750754535198
6.28241 0.861718475819
6.2874 0.896904528141
6.29239 1.00945079327
6.29738 1.1974234581
6.30237 1.22507119179
6.30736 1.27611374855
6.31235 1.43248927593
6.31734 1.51892125607
6.32233 1.72559142113
6.32732 1.72734856606
6.33231 1.88254368305
6.3373 2.07824134827
6.34229 2.12605571747
6.34728 2.13274359703
6.35227 2.14658522606
6.35726 2.18986749649
6.36225 2.12857985497
6.36724 2.04921293259
6.37223 1.93501543999
6.37722 1.71717488766
6.38221 1.57084679604
6.3872 1.41230690479
6.39219 1.17132925987
6.39718 0.919482469559
6.40217 0.711459994316
6.40716 0.487456232309
6.41215 0.26933953166
6.41714 0.117813616991
6.42213 -0.0631649643183
6.42712 -0.236714377999
6.43211 -0.345698684454
6.4371 -0.496940821409
6.44209 -0.537574350834
6.44708 -0.563766717911
6.45207 -0.599614024162
6.45706 -0.62296974659
6.46205 -0.599134087563
6.46704 -0.613893926144
6.47203 -0.749126672745
6.47702 -0.685098648071
6.48201 -0.638815522194
6.487 -0.762870371342
6.49199 -0.759852945805
6.49698 -0.663783252239
6.50197 -0.579234600067
6.50696 -0.660514831543
6.51195 -0.71915858984
6.51694 -0.639904558659
6.52193 -0.446419090033
6.52692 -0.462239205837
6.53191 -0.417259931564
6.5369 -0.401432871819
6.54189 -0.369857698679
6.54688 -0.324180394411
6.55187 -0.257693111897
6.55686 -0.301477342844
6.56185 -0.216884404421
6.56684 -0.224180877209
6.57183 -0.196763575077
6.57682 -0.226134166121
6.58181 -0.288239121437
6.5868 -0.272532343864
6.59179 -0.373687565327
6.59678 -0.253079622984
6.60177 -0.252168476582
6.60676 -0.172618359327
6.61175 -0.285620599985
6.61674 -0.214559137821
6.62173 -0.116026140749
6.62672 -0.222286462784
6.63171 -0.196040868759
6.6367 -0.21566131711
6.64169 -0.215130060911
6.64668 -0.307317167521
6.65167 -0.333760648966
6.65666 -0.403932452202
6.66165 -0.352342098951
6.66664 -0.346339970827
6.67163 -0.471505850554
6.67662 -0.439915597439
6.68161 -0.378816097975
6.6866 -0.397607117891
6.69159 -0.433546543121
6.69658 -0.439465820789
6.70157 -0.440200120211
6.70656 -0.508757531643
6.71155 -0.472468793392
6.71654 -0.368684232235
6.72153 -0.254883229733
6.72652 -0.368227273226
6.73151 -0.455172032118
6.7365 -0.320256918669
6.74149 -0.382400095463
6.74648 -0.353612303734
6.75147 -0.466956824064
6.75646 -0.408234357834
6.76145 -0.457091718912
6.76644 -0.440608084202
6.77143 -0.406868129969
6.77642 -0.323974251747
6.78141 -0.318487048149
6.7864 -0.325409382582
6.79139 -0.393524229527
6.79638 -0.238722711802
6.80137 -0.159193813801
6.80636 -0.137378662825
6.81135 -0.0680470392108
6.81634 0.0219647325575
6.82133 0.0790607184172
6.82632 0.0529351457953
6.83131 0.0578979514539
6.8363 -0.113238073885
6.84129 -0.11674375087
6.84628 -0.111291117966
6.85127 -0.0107438629493
6.85626 0.0581627674401
6.86125 -0.00108507007826
6.86624 -0.0928083732724
6.87123 -0.405765861273
6.87622 -0.390259593725
6.88121 -0.319562196732
6.8862 -0.273496299982
6.89119 -0.38017937541
6.89618 -0.350539386272
6.90117 -0.504301607609
6.90616 -0.619520246983
6.91115 -0.582502841949
6.91614 -0.593534290791
6.92113 -0.566631197929
6.92612 -0.544020235538
6.93111 -0.522127449512
6.9361 -0.580585300922
6.94109 -0.563608646393
6.94608 -0.556548416615
6.95107 -0.574269354343
6.95606 -0.506927013397
6.96105 -0.500810980797
6.96604 -0.578712880611
6.97103 -0.561266362667
6.97602 -0.38701954484
6.98101 -0.353517591953
6.986 -0.510382473469
6.99099 -0.642438530922
6.99598 0.088213160634
7.00097 1.16451251507
7.00596 2.63368725777
7.01095 3.95169043541
7.01594 3.74641466141
7.02093 2.86454749107
7.02592 1.07019937038
7.03091 -1.53356766701
7.0359 -3.95280480385
7.04089 -5.29163837433
7.04588 -4.84262228012
7.05087 -3.64552807808
7.05586 -2.62877750397
7.06085 -1.99099695683
7.06584 -1.4507266283
7.07083 -0.753718435764
7.07582 -0.280589133501
7.08081 -0.0686828941107
7.0858 0.026454469189
7.09079 0.0657759234309
7.09578 0.158237695694
7.10077 0.244579538703
7.10576 0.216408506036
7.11075 0.217476502061
7.11574 0.195638686419
7.12073 0.19602034986
7.12572 0.229407921433
7.13071 0.215308889747
7.1357 0.219942912459
7.14069 0.321150898933
7.14568 0.255046099424
7.15067 0.278629153967
7.15566 0.391956776381
7.16065 0.358172088861
7.16564 0.432884454727
7.17063 0.427294462919
7.17562 0.502598822117
7.18061 0.65703868866
7.1856 0.645509302616
7.19059 0.64213937521
7.19558 0.764103889465
7.20057 0.817928195
7.20556 0.896555602551
7.21055 0.941449522972
7.21554 1.09907984734
7.22053 1.22916197777
7.22552 1.32243824005
7.23051 1.3057602644
7.2355 1.42460989952
7.24049 1.72508692741
7.24548 1.69591462612
7.25047 1.7356607914
7.25546 1.94856798649
7.26045 1.97284305096
7.26544 2.0863764286
7.27043 2.00000023842
7.27542 2.111577034
7.28041 2.09811496735
7.2854 2.05144929886
7.29039 1.94016969204
7.29538 1.72711062431
7.30037 1.7009472847
7.30536 1.47665882111
7.31035 1.25467228889
7.31534 1.10301268101
7.32033 0.974921703339
7.32532 0.715764820576
7.33031 0.494127690792
7.3353 0.351645886898
7.34029 0.186281383038
7.34528 -0.0571491383016
7.35027 -0.304176330566
7.35526 -0.375763118267
7.36025 -0.491961926222
7.36524 -0.533410191536
7.37023 -0.495901286602
7.37522 -0.627930998802
7.38021 -0.675274074078
7.3852 -0.719657361507
7.39019 -0.736575782299
7.39518 -0.767343342304
7.40017 -0.700448811054
7.40516 -0.609184503555
7.41015 -0.699919760227
7.41514 -0.763657569885
7.42013 -0.662118434906
7.42512 -0.686584234238
7.43011 -0.675533354282
7.4351 -0.516418278217
7.44009 -0.464350789785
7.44508 -0.507857263088
7.45007 -0.448832064867
7.45506 -0.418941557407
7.46005 -0.46256685257
7.46504 -0.380818247795
7.47003 -0.364450603724
7.47502 -0.332899957895
7.48001 -0.28596842289
7.485 -0.255047857761
7.48999 -0.326412886381
7.49498 -0.294811427593
7.49997 -0.199788063765
7.50496 -0.230460613966
7.50995 -0.348400890827
7.51494 -0.281697660685
7.51993 -0.215395599604
7.52492 -0.206269666553
7.52991 -0.33328974247
7.5349 -0.30512368679
7.53989 -0.279237478971
7.54488 -0.269693404436
7.54987 -0.246815741062
7.55486 -0.280612468719
7.55985 -0.264598250389
7.56484 -0.330344706774
7.56983 -0.297885507345
7.57482 -0.344882458448
7.57981 -0.301240622997
7.5848 -0.428012371063
7.58979 -0.446905463934
7.59478 -0.471683293581
7.59977 -0.427525371313
7.60476 -0.403565227985
7.60975 -0.386078506708
7.61474 -0.347746551037
7.61973 -0.4003688097
7.62472 -0.486727982759
7.62971 -0.436951339245
7.6347 -0.451724439859
7.63969 -0.351077526808
7.64468 -0.31217649579
7.64967 -0.312498062849
7.65466 -0.374799102545
7.65965 -0.410146266222
7.66464 -0.386673331261
7.66963 -0.452110260725
7.67462 -0.413334906101
7.67961 -0.324089974165
7.6846 -0.312454044819
7.68959 -0.301735639572
7.69458 -0.411455750465
7.69957 -0.346735358238
7.70456 -0.351166814566
7.70955 -0.439745426178
7.71454 -0.324700266123
7.71953 -0.286868661642
7.72452 -0.250693798065
7.72951 -0.313210725784
7.7345 -0.360549241304
7.73949 -0.187975361943
7.74448 -0.154470682144
7.74947 -0.175297707319
7.75446 -0.170817136765
7.75945 0.0351865291595
7.76444 0.0799709260464
7.76943 0.0636558160186
7.77442 0.0695384070277
7.77941 -0.0241186413914
7.7844 -0.140569925308
7.78939 0.010461339727
7.79438 0.221692234278
7.79937 0.187272727489
7.80436 0.0441600382328
7.80935 -0.0712990984321
7.81434 -0.277141690254
7.81933 -0.250151127577
7.82432 -0.198354393244
7.82931 -0.336480438709
7.8343 -0.362027972937
7.83929 -0.362303227186
7.84428 -0.399072319269
7.84927 -0.559981822968
7.85426 -0.450482815504
7.85925 -0.514859974384
7.86424 -0.534820377827
7.86923 -0.485950648785
7.87422 -0.503542304039
7.87921 -0.414337426424
7.8842 -0.360392123461
7.88919 -0.435743927956
7.89418 -0.401866555214
7.89917 -0.364564567804
7.90416 -0.249749794602
7.90915 -0.348662525415
7.91414 -0.287618130445
7.91913 -0.301305711269
7.92412 -0.249718725681
7.92911 -0.311521053314
7.9341 -0.386092066765
7.93909 -0.115785226226
7.94408 0.879175543785
7.94907 2.06756687164
7.95406 3.49017930031
7.95905 4.12379312515
7.96404 3.82816410065
7.96903 2.33961057663
7.97402 -0.240366727114
7.97901 -2.64729332924
7.984 -4.61331701279
7.98899 -5.11212444305
7.99398 -4.40085029602
7.99897 -3.23985767365
8.00396 -2.51425647736
8.00895 -1.88098931313
8.01394 -1.31688344479
8.01893 -0.711319327354
8.02392 -0.285971611738
8.02891 -0.0618931613863
8.0339 0.0550037249923
8.03889 0.195871263742
8.04388 0.144117102027
8.04887 0.129514098167
8.05386 0.216561183333
8.05885 0.256453573704
8.06384 0.270551651716
8.06883 0.193834722042
8.07382 0.118663065135
8.07881 0.19417065382
8.0838 0.254684656858
8.08879 0.229555249214
8.09378 0.306273579597
8.09877 0.393293112516
8.10376 0.405065268278
8.10875 0.454930186272
8.11374 0.49272736907
8.11873 0.519390106201
8.12372 0.593508899212
8.12871 0.603404462337
8.1337 0.703829467297
8.13869 0.658467173576
8.14368 0.647334158421
8.14867 0.788569450378
8.15366 0.848483622074
8.15865 0.909635424614
8.16364 0.974679529667
8.16863 1.03731071949
8.17362 1.22027921677
8.17861 1.25911545753
8.1836 1.50025236607
8.18859 1.57216441631
8.19358 1.75675213337
8.19857 1.87273418903
8.20356 2.01386404037
8.20855 2.0725748539
8.21354 2.04645633698
8.21853 2.1137714386
8.22352 2.077647686
8.22851 2.0481967926
8.2335 2.00927448273
8.23849 1.95284152031
8.24348 1.7076883316
8.24847 1.57673537731
8.25346 1.49427545071
8.25845 1.25316679478
8.26344 0.988739550114
8.26843 0.802980899811
8.27342 0.579226374626
8.27841 0.30510148406
8.2834 0.116089262068
8.28839 -0.0992163196206
8.29338 -0.174587890506
8.29837 -0.334002792835
8.30336 -0.371499478817
8.30835 -0.550325989723
8.31334 -0.612562596798
8.31833 -0.548935890198
8.32332 -0.550009489059
8.32831 -0.588137626648
8.3333 -0.685679078102
8.33829 -0.684527754784
8.34328 -0.712899446487
8.34827 -0.715111196041
8.35326 -0.650877594948
8.35825 -0.696873605251
8.36324 -0.722006320953
8.36823 -0.75234234333
8.37322 -0.605130970478
8.37821 -0.599317669868
8.3832 -0.594112157822
8.38819 -0.563883841038
8.39318 -0.519918143749
8.39817 -0.462043583393
8.40316 -0.467540383339
8.40815 -0.438523977995
8.41314 -0.48262861371
8.41813 -0.288217067719
8.42312 -0.245334595442
8.42811 -0.324021875858
8.4331 -0.353424578905
8.43809 -0.226906329393
8.44308 -0.173677101731
8.44807 -0.297335326672
8.45306 -0.336720824242
8.45805 -0.265044987202
8.46304 -0.263680249453
8.46803 -0.3711130023
8.47302 -0.397140324116
8.47801 -0.365791350603
8.483 -0.242032214999
8.48799 -0.335046708584
8.49298 -0.319700241089
8.49797 -0.277699053288
8.50296 -0.267865180969
8.50795 -0.248140841722
8.51294 -0.282391726971
8.51793 -0.288087636232
8.52292 -0.267085433006
8.52791 -0.324199169874
8.5329 -0.344655424356
8.53789 -0.374331206083
8.54288 -0.305162042379
8.54787 -0.400585263968
8.55286 -0.455401808023
8.55785 -0.43562784791
8.56284 -0.431615173817
8.56783 -0.414997667074
8.57282 -0.419018745422
8.57781 -0.495503932238
8.5828 -0.454531550407
8.58779 -0.406181812286
8.59278 -0.446056336164
8.59777 -0.491747498512
8.60276 -0.379096418619
8.60775 -0.409837186337
8.61274 -0.445342391729
8.61773 -0.352856904268
8.62272 -0.367509484291
8.62771 -0.372159153223
8.6327 -0.481185168028
8.63769 -0.377039849758
8.64268 -0.418899089098
8.64767 -0.44715693593
8.65266 -0.45598384738
8.65765 -0.2797716856
8.66264 -0.246492296457
8.66763 -0.319984704256
8.67262 -0.217011556029
8.67761 -0.0585239231586
8.6826 -0.108986854553
8.68759 -0.0545257553458
8.69258 -0.0549891106784
8.69757 -0.020470874384
8.70256 -0.00759015232325
8.70755 -0.152931660414
8.71254 -0.17780597508
8.71753 -0.0235148146749
8.72252 0.0867802649736
8.72751 0.0222165100276
8.7325 0.0260144807398
8.73749 -0.0209843963385
8.74248 -0.258334010839
8.74747 -0.324634134769
8.75246 -0.390049368143
8.75745 -0.410782337189
8.76244 -0.273468732834
8.76743 -0.36531162262
8.77242 -0.473827600479
8.77741 -0.580495655537
8.7824 -0.549039959908
8.78739 -0.569935142994
8.79238 -0.575928449631
8.79737 -0.579089939594
8.80236 -0.548539161682
8.80735 -0.509773850441
8.81234 -0.527226626873
8.81733 -0.551271498203
8.82232 -0.49728295207
8.82731 -0.475211530924
8.8323 -0.441570401192
8.83729 -0.33870986104
8.84228 -0.408069610596
8.84727 -0.348962932825
8.85226 -0.368079155684
8.85725 -0.301106005907
8.86224 -0.466979414225
8.86723 -0.299232065678
8.87222 0.537964582443
8.87721 1.84049367905
8.8822 3.53914070129
8.88719 4.49027395248
8.89218 3.9638299942
8.89717 2.81001663208
8.90216 0.576847910881
8.90715 -2.26779913902
8.91214 -4.58219671249
8.91713 -5.09712123871
8.92212 -4.51572799683
8.92711 -3.39096236229
8.9321 -2.51504993439
8.93709 -1.90560948849
8.94208 -1.33932292461
8.94707 -0.799417257309
8.95206 -0.302516013384
8.95705 -0.172184571624
8.96204 -0.0382708087564
8.96703 -0.0183460693806
8.97202 0.0977959409356
8.97701 0.153700947762
8.982 0.287430226803
8.98699 0.231816545129
8.99198 0.286632150412
8.99697 0.341923892498
9.00196 0.362811475992
9.00695 0.283209383488
9.01194 0.361240416765
9.01693 0.316717028618
9.02192 0.278224736452
9.02691 0.393799304962
9.0319 0.393940925598
9.03689 0.480218648911
9.04188 0.406460344791
9.04687 0.506061375141
9.05186 0.564962565899
9.05685 0.629767358303
9.06184 0.646752953529
9.06683 0.570291876793
9.07182 0.725869297981
9.07681 0.838174760342
9.0818 0.896808922291
9.08679 0.897380769253
9.09178 1.07411909103
9.09677 1.23479950428
9.10176 1.29751718044
9.10675 1.46041202545
9.11174 1.57163274288
9.11673 1.72268533707
9.12172 1.84890270233
9.12671 1.99650859833
9.1317 2.14462375641
9.13669 2.17513227463
9.14168 2.16722750664
9.14667 2.16099190712
9.15166 2.19299006462
9.15665 2.15108799934
9.16164 2.07116127014
9.16663 1.97516739368
9.17162 1.84317815304
9.17661 1.69140791893
9.1816 1.52432978153
9.18659 1.33794510365
9.19158 1.0935356617
9.19657 0.930940389633
9.20156 0.72514975071
9.20655 0.500039160252
9.21154 0.305443912745
9.21653 0.0942282676697
9.22152 -0.0859823450446
9.22651 -0.165555030107
9.2315 -0.237349167466
9.23649 -0.30662599206
9.24148 -0.384352147579
9.24647 -0.552242159843
9.25146 -0.637187898159
9.25645 -0.510158777237
9.26144 -0.427564620972
9.26643 -0.502713739872
9.27142 -0.533814311028
9.27641 -0.472022682428
9.2814 -0.54003226757
9.28639 -0.551939964294
9.29138 -0.449436277151
9.29637 -0.485887944698
9.30136 -0.498750090599
9.30635 -0.538492679596
9.31134 -0.452519595623
9.31633 -0.43741491437
9.32132 -0.495784014463
9.32631 -0.425487548113
9.3313 -0.455417990685
9.33629 -0.313145071268
9.34128 -0.283841699362
9.34627 -0.36138638854
9.35126 -0.340867996216
9.35625 -0.239923045039
9.36124 -0.247208788991
9.36623 -0.223176121712
9.37122 -0.142613738775
9.37621 -0.103204257786
9.3812 -0.107124976814
9.38619 -0.208011820912
9.39118 -0.204503074288
9.39617 -0.191702291369
9.40116 -0.120969586074
9.40615 -0.0607511736453
9.41114 -0.00658120959997
9.41613 -0.0883624851704
9.42112 -0.202003136277
9.42611 -0.234641090035
9.4311 -0.161795914173
9.43609 -0.153652846813
9.44108 -0.223874539137
9.44607 -0.257485330105
9.45106 -0.214410275221
9.45605 -0.266867130995
9.46104 -0.32052218914
9.46603 -0.307700961828
9.47102 -0.280710697174
9.47601 -0.341261357069
9.481 -0.34239050746
9.48599 -0.309420466423
9.49098 -0.370269358158
9.49597 -0.376498311758
9.50096 -0.403243720531
9.50595 -0.349078804255
9.51094 -0.360528856516
9.51593 -0.301180809736
9.52092 -0.301961153746
9.52591 -0.237509533763
9.5309 -0.274133175611
9.53589 -0.24935489893
9.54088 -0.311846494675
9.54587 -0.31231290102
9.55086 -0.301447957754
9.55585 -0.312230616808
9.56084 -0.359192639589
9.56583 -0.349797427654
9.57082 -0.34169369936
9.57581 -0.288223206997
9.5808 -0.270994544029
9.58579 -0.299250990152
9.59078 -0.316420823336
9.59577 -0.251073479652
9.60076 -0.0863235518336
9.60575 -0.126138880849
9.61074 -0.0893676504493
9.61573 0.0117983231321
9.62072 0.136569932103
9.62571 0.14817301929
9.6307 0.100634589791
9.63569 0.0535894297063
9.64068 -0.0475059188902
9.64567 0.00931561831385
9.65066 0.106753475964
9.65565 0.237302899361
9.66064 0.192578315735
9.66563 0.126571238041
9.67062 -0.0274296961725
9.67561 -0.146941393614
9.6806 -0.243284851313
9.68559 -0.251567333937
9.69058 -0.146429643035
9.69557 -0.198914051056
9.70056 -0.300242751837
9.70555 -0.496460497379
9.71054 -0.620226502419
9.71553 -0.613630115986
9.72052 -0.493210852146
9.72551 -0.512968957424
9.7305 -0.49480175972
9.73549 -0.474622637033
9.74048 -0.430198013783
9.74547 -0.426191747189
9.75046 -0.494359999895
9.75545 -0.46026545763
9.76044 -0.418314039707
9.76543 -0.464717119932
9.77042 -0.468959003687
9.77541 -0.472158461809
9.7804 -0.393701970577
9.78539 -0.490114718676
9.79038 -0.492801785469
9.79537 -0.705923080444
9.80036 0.0232094526291
9.80535 1.01584875584
9.81034 2.47400379181
9.81533 3.93683886528
9.82032 3.80392503738
9.82531 2.82867097855
9.8303 1.37007761002
9.83529 -1.14105856419
9.84028 -3.6762740612
9.84527 -5.10701465607
9.85026 -4.82878065109
9.85525 -3.62653398514
9.86024 -2.77633810043
9.86523 -1.94883358479
9.87022 -1.28436613083
9.87521 -0.633706629276
9.8802 -0.0837804451585
9.88519 0.0970360562205
9.89018 0.117503345013
9.89517 0.139916211367
9.90016 0.231187149882
9.90515 0.319435864687
9.91014 0.304424792528
9.91513 0.281202614307
9.92012 0.296149969101
9.92511 0.404016643763
9.9301 0.315268218517
9.93509 0.334584504366
9.94008 0.40869230032
9.94507 0.499916672707
9.95006 0.403042703867
9.95505 0.376992374659
9.96004 0.372884273529
9.96503 0.397326827049
9.97002 0.54848253727
9.97501 0.537847578526
9.98 0.637952804565
9.98499 0.585939705372
9.98998 0.513092875481
9.99497 0.638116717339
9.99996 0.696826934814
10.00495 0.747137963772
10.00994 0.849732458591
10.01493 0.949399113655
10.01992 1.01038599014
10.02491 1.1098870039
10.0299 1.17334651947
10.03489 1.3114811182
10.03988 1.44729447365
10.04487 1.57102501392
10.04986 1.73423171043
10.05485 1.7996481657
10.05984 1.94958543777
10.06483 1.98382627964
10.06982 2.09644556046
10.07481 2.11323237419
10.0798 2.15225100517
10.08479 2.12290906906
10.08978 2.02310013771
10.09477 1.94159162045
10.09976 1.8542560339
10.10475 1.73561346531
10.10974 1.54907035828
10.11473 1.43107008934
10.11972 1.31704926491
10.12471 1.11071908474
10.1297 0.827010750771
10.13469 0.584842801094
10.13968 0.355831474066
10.14467 0.171386837959
10.14966 -0.0501485690475
10.15465 -0.227410122752
10.15964 -0.258276253939
10.16463 -0.419539928436
10.16962 -0.550080657005
10.17461 -0.577546000481
10.1796 -0.598181843758
10.18459 -0.547781050205
10.18958 -0.626770555973
10.19457 -0.723974823952
10.19956 -0.794508755207
10.20455 -0.738045752048
10.20954 -0.768730640411
10.21453 -0.674965858459
10.21952 -0.620070397854
10.22451 -0.625623703003
10.2295 -0.544041156769
10.23449 -0.500954568386
10.23948 -0.456393688917
10.24447 -0.339004904032
10.24946 -0.395100742579
10.25445 -0.39727512002
10.25944 -0.366926729679
10.26443 -0.365644752979
10.26942 -0.28492346406
10.27441 -0.248464688659
10.2794 -0.166119232774
10.28439 -0.128444716334
10.28938 -0.258071660995
10.29437 -0.219896391034
10.29936 -0.167512610555
10.30435 -0.119220472872
10.30934 -0.0475750975311
10.31433 -0.0812489315867
10.31932 -0.150015369058
10.32431 -0.21661645174
10.3293 -0.21213683486
10.33429 -0.171415835619
10.33928 -0.150519564748
10.34427 -0.0923450291157
10.34926 -0.223987340927
10.35425 -0.18107829988
10.35924 -0.20053806901
10.36423 -0.304444074631
10.36922 -0.298510849476
10.37421 -0.24624478817
10.3792 -0.226765662432
10.38419 -0.155177369714
10.38918 -0.174707680941
10.39417 -0.181737214327
10.39916 -0.112944118679
10.40415 -0.131569698453
10.40914 -0.161962553859
10.41413 -0.192308083177
10.41912 -0.248318880796
10.42411 -0.293538153172
10.4291 -0.276836901903
10.43409 -0.293749511242
10.43908 -0.247738346457
10.44407 -0.342897385359
10.44906 -0.326599597931
10.45405 -0.319736331701
10.45904 -0.199523285031
10.46403 -0.20700520277
10.46902 -0.21340534091
10.47401 -0.18073566258
10.479 -0.173876687884
10.48399 -0.255556076765
10.48898 -0.299753636122
10.49397 -0.145970746875
10.49896 -0.102543778718
10.50395 -0.117022901773
10.50894 -0.196638420224
10.51393 -0.157160207629
10.51892 -0.214744791389
10.52391 -0.216888725758
10.5289 -0.0879021659493
10.53389 -0.0235384702682
10.53888 -0.000249902630458
10.54387 0.0473356172442
10.54886 0.110254824162
10.55385 0.187950342894
10.55884 0.127604365349
10.56383 0.0269724894315
10.56882 -0.00128476659302
10.57381 0.121584907174
10.5788 0.247970879078
10.58379 0.312688559294
10.58878 0.165005117655
10.59377 0.0416038073599
10.59876 -0.0115128802136
10.60375 -0.200330883265
10.60874 -0.210967063904
10.61373 -0.224100068212
10.61872 -0.213176950812
10.62371 -0.225846096873
10.6287 -0.44621488452
10.63369 -0.556124746799
10.63868 -0.477293848991
10.64367 -0.470081239939
10.64866 -0.473288655281
10.65365 -0.479445576668
10.65864 -0.426462471485
10.66363 -0.409037947655
10.66862 -0.473346620798
10.67361 -0.489374190569
10.6786 -0.41408392787
10.68359 -0.424030065536
10.68858 -0.399223446846
10.69357 -0.376439511776
10.69856 -0.289061456919
10.70355 -0.373529553413
10.70854 -0.37271758914
10.71353 -0.302325755358
10.71852 -0.450111150742
10.72351 -0.371465206146
10.7285 0.410841941833
10.73349 1.54098963737
10.73848 3.07186770439
10.74347 4.06737470627
10.74846 3.6291475296
10.75345 2.56728124619
10.75844 0.359845668077
10.76343 -1.92138838768
10.76842 -4.12604761124
10.77341 -4.97812128067
10.7784 -4.42852544785
10.78339 -3.34579014778
10.78838 -2.55044221878
10.79337 -1.87607169151
10.79836 -1.26802110672
10.80335 -0.753710985184
10.80834 -0.359410881996
10.81333 -0.0816169977188
10.81832 -0.00767969572917
10.82331 0.00513099879026
10.8283 0.0803679525852
10.83329 0.191984400153
10.83828 0.156740173697
10.84327 0.195261895657
10.84826 0.228633627295
10.85325 0.315322041512
10.85824 0.209910824895
10.86323 0.211111947894
10.86822 0.287870258093
10.87321 0.349146574736
10.8782 0.312438547611
10.88319 0.289066642523
10.88818 0.385395824909
10.89317 0.347401857376
10.89816 0.390193015337
10.90315 0.376883476973
10.90814 0.420776933432
10.91313 0.557592272758
10.91812 0.540407598019
10.92311 0.591533720493
10.9281 0.545884907246
10.93309 0.681798458099
10.93808 0.812885761261
10.94307 0.901750802994
10.94806 1.03233981133
10.95305 1.04552447796
10.95804 1.12894058228
10.96303 1.31213498116
10.96802 1.41502988338
10.97301 1.57058644295
10.978 1.61931025982
10.98299 1.78762757778
10.98798 1.9118206501
10.99297 2.0448513031
10.99796 2.12217640877
11.00295 1.95551669598
11.00794 2.0274875164
11.01293 2.09134483337
11.01792 1.98546624184
11.02291 1.94741976261
11.0279 1.82776474953
11.03289 1.65629422665
11.03788 1.55159115791
11.04287 1.28630936146
11.04786 1.04251658916
11.05285 0.894383907318
11.05784 0.565427601337
11.06283 0.388329952955
11.06782 0.152628585696
11.07281 -0.0440623275936
11.0778 -0.257796943188
11.08279 -0.363250017166
11.08778 -0.47685021162
11.09277 -0.570748150349
11.09776 -0.595192432404
11.10275 -0.628019452095
11.10774 -0.752797722816
11.11273 -0.707882642746
11.11772 -0.733826458454
11.12271 -0.765812933445
11.1277 -0.741484582424
11.13269 -0.832770645618
11.13768 -0.769364535809
11.14267 -0.829349696636
11.14766 -0.842387378216
11.15265 -0.795799255371
11.15764 -0.733132958412
11.16263 -0.668322861195
11.16762 -0.680675625801
11.17261 -0.607348144054
11.1776 -0.533037185669
11.18259 -0.580271184444
11.18758 -0.566964030266
11.19257 -0.532728493214
11.19756 -0.421759277582
11.20255 -0.431131541729
11.20754 -0.391829013824
11.21253 -0.381973683834
11.21752 -0.333093643188
11.22251 -0.343434393406
11.2275 -0.317804157734
11.23249 -0.380838721991
11.23748 -0.330984830856
11.24247 -0.246089026332
11.24746 -0.246063277125
11.25245 -0.266024827957
11.25744 -0.314379543066
11.26243 -0.455742776394
11.26742 -0.409731805325
11.27241 -0.358157008886
11.2774 -0.401889294386
11.28239 -0.403367221355
11.28738 -0.4602868855
11.29237 -0.37198227644
11.29736 -0.414431869984
11.30235 -0.451489448547
11.30734 -0.472719192505
11.31233 -0.423785924911
11.31732 -0.414688795805
11.32231 -0.462819039822
11.3273 -0.435548067093
11.33229 -0.449732065201
11.33728 -0.438399136066
11.34227 -0.400753974915
11.34726 -0.486417472363
11.35225 -0.411427050829
11.35724 -0.450636744499
11.36223 -0.43786290288
11.36722 -0.560677468777
11.37221 -0.584618628025
11.3772 -0.501673638821
11.38219 -0.503829538822
11.38718 -0.609665870667
11.39217 -0.496077537537
11.39716 -0.39270401001
11.40215 -0.392800092697
11.40714 -0.506113171577
11.41213 -0.456007987261
11.41712 -0.40690112114
11.42211 -0.407022148371
11.4271 -0.467756718397
11.43209 -0.454536497593
11.43708 -0.431751698256
11.44207 -0.420744895935
11.44706 -0.332946777344
11.45205 -0.244425311685
11.45704 -0.254833042622
11.46203 -0.107581473887
11.46702 -0.0984009280801
11.47201 -0.00654474459589
11.477 -0.100713312626
11.48199 -0.153514057398
11.48698 -0.0385212861001
11.49197 0.0625363439322
11.49696 0.0996013656259
11.50195 0.1240202263
11.50694 -0.0357924588025
11.51193 -0.0710042789578
11.51692 -0.259803146124
11.52191 -0.312472581863
11.5269 -0.228832870722
11.53189 -0.226366534829
11.53688 -0.269627392292
11.54187 -0.518741726875
11.54686 -0.600650966167
11.55185 -0.616997659206
11.55684 -0.512197434902
11.56183 -0.558571338654
11.56682 -0.648624181747
11.57181 -0.541470468044
11.5768 -0.478035777807
11.58179 -0.521041691303
11.58678 -0.472563266754
11.59177 -0.405612438917
11.59676 -0.427190601826
11.60175 -0.381991654634
11.60674 -0.411114811897
11.61173 -0.318885743618
11.61672 -0.376017153263
11.62171 -0.355289459229
11.6267 -0.436084389687
11.63169 -0.56622415781
11.63668 -0.425571590662
11.64167 0.290404349566
11.64666 1.56801211834
11.65165 3.11389040947
11.65664 4.18963241577
11.66163 3.60153985023
11.66662 2.4726524353
11.67161 0.311976373196
11.6766 -2.49332404137
11.68159 -4.57081985474
11.68658 -5.08902692795
11.69157 -4.28147172928
11.69656 -3.1023478508
11.70155 -2.18762803078
11.70654 -1.62056195736
11.71153 -1.00530314445
11.71652 -0.496173679829
11.72151 -0.0963524878025
11.7265 0.0249174758792
11.73149 0.0441325567663
11.73648 0.0994695648551
11.74147 0.215597823262
11.74646 0.173661679029
11.75145 0.20939566195
11.75644 0.250626146793
11.76143 0.289222538471
11.76642 0.248653426766
11.77141 0.248779192567
11.7764 0.276401549578
11.78139 0.423319369555
11.78638 0.358970552683
11.79137 0.438718527555
11.79636 0.47708594799
11.80135 0.509932637215
11.80634 0.521319508553
11.81133 0.563927769661
11.81632 0.627359032631
11.82131 0.63466411829
11.8263 0.818634748459
11.83129 0.775196313858
11.83628 0.819090843201
11.84127 0.922108769417
11.84626 0.96500569582
11.85125 1.0134049654
11.85624 1.09555697441
11.86123 1.10958909988
11.86622 1.20155954361
11.87121 1.25003039837
11.8762 1.3461561203
11.88119 1.60620582104
11.88618 1.68455243111
11.89117 1.87608039379
11.89616 2.09614229202
11.90115 2.11911487579
11.90614 2.15126562119
11.91113 2.21571326256
11.91612 2.27138328552
11.92111 2.25755929947
11.9261 2.17831254005
11.93109 2.18001389503
11.93608 2.072940588
11.94107 2.02151727676
11.94606 1.76775026321
11.95105 1.49832594395
11.95604 1.35126566887
11.96103 1.2672315836
11.96602 0.978344202042
11.97101 0.69132322073
11.976 0.529124855995
11.98099 0.240654289722
11.98598 0.151017785072
11.99097 -0.0856279507279
11.99596 -0.231720432639
12.00095 -0.273683488369
12.00594 -0.292878448963
12.01093 -0.399287611246
12.01592 -0.527501642704
12.02091 -0.547972619534
12.0259 -0.559908807278
12.03089 -0.588743209839
12.03588 -0.687081098557
12.04087 -0.622738182545
12.04586 -0.614442288876
12.05085 -0.65166258812
12.05584 -0.683447241783
12.06083 -0.647882819176
12.06582 -0.556437551975
12.07081 -0.504301548004
12.0758 -0.469010859728
12.08079 -0.409274816513
12.08578 -0.456653952599
12.09077 -0.440215855837
12.09576 -0.344223499298
12.10075 -0.31144618988
12.10574 -0.331515938044
12.11073 -0.252037882805
12.11572 -0.244037866592
12.12071 -0.186192706227
12.1257 -0.182533159852
12.13069 -0.151965007186
12.13568 -0.1300252527
12.14067 -0.135522603989
12.14566 -0.108446724713
12.15065 -0.0534340664744
12.15564 -0.078799828887
12.16063 -0.0710408911109
12.16562 -0.0965619981289
12.17061 -0.128220826387
12.1756 -0.102599300444
12.18059 -0.096999630332
12.18558 -0.171934887767
12.19057 -0.10305339843
12.19556 -0.103400409222
12.20055 -0.170605227351
12.20554 -0.232652336359
12.21053 -0.240880459547
12.21552 -0.167580455542
12.22051 -0.147796526551
12.2255 -0.244312137365
12.23049 -0.2260594666
12.23548 -0.267009168863
12.24047 -0.272865176201
12.24546 -0.344810962677
12.25045 -0.289420485497
12.25544 -0.218842431903
12.26043 -0.273018449545
12.26542 -0.305351942778
12.27041 -0.350789815187
12.2754 -0.293964207172
12.28039 -0.385797262192
12.28538 -0.392493724823
12.29037 -0.278407663107
12.29536 -0.221871003509
12.30035 -0.16066609323
12.30534 -0.154797255993
12.31033 -0.213599652052
12.31532 -0.09535767138
12.32031 -0.174263611436
12.3253 -0.314291000366
12.33029 -0.188063383102
12.33528 -0.174605116248
12.34027 -0.174404323101
12.34526 -0.20059722662
12.35025 -0.187947526574
12.35524 -0.198633298278
12.36023 -0.0760722011328
12.36522 -0.0173980519176
12.37021 0.061221241951
12.3752 0.0544419325888
12.38019 0.162324920297
12.38518 0.118771731853
12.39017 0.125495418906
12.39516 0.217800438404
12.40015 0.161535605788
12.40514 0.0835304558277
12.41013 0.113978721201
12.41512 0.227346301079
12.42011 0.357234358788
12.4251 0.283376008272
12.43009 0.231918826699
12.43508 0.205978617072
12.44007 0.0338214933872
12.44506 -0.114169977605
12.45005 -0.168251097202
12.45504 -0.171595975757
12.46003 -0.119758091867
12.46502 -0.14205442369
12.47001 -0.265540868044
12.475 -0.341403275728
12.47999 -0.369934529066
12.48498 -0.358894705772
12.48997 -0.306113392115
12.49496 -0.328181892633
12.49995 -0.318318784237
12.50494 -0.371707499027
12.50993 -0.343818366528
12.51492 -0.36497592926
12.51991 -0.404813826084
12.5249 -0.385246783495
12.52989 -0.407665580511
12.53488 -0.364154547453
12.53987 -0.281427383423
12.54486 -0.176913797855
12.54985 -0.158169046044
12.55484 -0.196949675679
12.55983 -0.326310187578
12.56482 -0.301962852478
12.56981 0.734328150749
12.5748 2.08938217163
12.57979 3.60673856735
12.58478 4.10126113892
12.58977 3.55444812775
12.59476 2.16604304314
12.59975 -0.0849995687604
12.60474 -2.51751065254
12.60973 -4.66634845734
12.61472 -5.15027856827
12.61971 -4.18858289719
12.6247 -3.14289236069
12.62969 -2.31485795975
12.63468 -1.64131259918
12.63967 -1.02933895588
12.64466 -0.563653945923
12.64965 -0.221036583185
12.65464 0.00567169301212
12.65963 0.0668553560972
12.66462 0.215060681105
12.66961 0.316226691008
12.6746 0.17385071516
12.67959 0.19841298461
12.68458 0.199769958854
12.68957 0.262572050095
12.69456 0.262480705976
12.69955 0.274992078543
12.70454 0.298448771238
12.70953 0.385207593441
12.71452 0.363691657782
12.71951 0.353018820286
12.7245 0.323426216841
12.72949 0.371121972799
12.73448 0.437917262316
12.73947 0.501987993717
12.74446 0.595980286598
12.74945 0.706562995911
12.75444 0.75203704834
12.75943 0.730596780777
12.76442 0.771455943584
12.76941 0.829538822174
12.7744 0.877274394035
12.77939 0.869802176952
12.78438 0.908475875854
12.78937 1.03914058208
12.79436 1.19969761372
12.79935 1.25722026825
12.80434 1.33422994614
12.80933 1.61108636856
12.81432 1.83287274837
12.81931 1.85946464539
12.8243 1.95102238655
12.82929 2.04868745804
12.83428 2.07183551788
12.83927 2.08754110336
12.84426 2.12548971176
12.84925 2.1229569912
12.85424 2.06272506714
12.85923 1.9663888216
12.86422 1.8144646883
12.86921 1.85900008678
12.8742 1.60127949715
12.87919 1.36097049713
12.88418 1.19129574299
12.88917 0.993871450424
12.89416 0.75338101387
12.89915 0.501449346542
12.90414 0.241264298558
12.90913 0.128929078579
12.91412 0.0499222055078
12.91911 -0.235281407833
12.9241 -0.38120341301
12.92909 -0.51053494215
12.93408 -0.466497153044
12.93907 -0.649146974087
12.94406 -0.655910313129
12.94905 -0.552419960499
12.95404 -0.630994141102
12.95903 -0.64544904232
12.96402 -0.656460940838
12.96901 -0.629830479622
12.974 -0.630456566811
12.97899 -0.693483769894
12.98398 -0.693870007992
12.98897 -0.743232905865
12.99396 -0.680317342281
12.99895 -0.595899820328
13.00394 -0.682511210442
13.00893 -0.677838563919
13.01392 -0.580584347248
13.01891 -0.487029254436
13.0239 -0.471589565277
13.02889 -0.463478475809
13.03388 -0.489688783884
13.03887 -0.436337560415
13.04386 -0.448929399252
13.04885 -0.32805249095
13.05384 -0.22869668901
13.05883 -0.260022848845
13.06382 -0.320412397385
13.06881 -0.32663577795
13.0738 -0.27938336134
13.07879 -0.34751573205
13.08378 -0.357409358025
13.08877 -0.352588772774
13.09376 -0.354273289442
13.09875 -0.445391625166
13.10374 -0.444764524698
13.10873 -0.429991900921
13.11372 -0.466496169567
13.11871 -0.419583171606
13.1237 -0.446770220995
13.12869 -0.455009460449
13.13368 -0.366114407778
13.13867 -0.481494426727
13.14366 -0.568618953228
13.14865 -0.481103032827
13.15364 -0.469529241323
13.15863 -0.517728567123
13.16362 -0.517620384693
13.16861 -0.470610439777
13.1736 -0.48204433918
13.17859 -0.490979641676
13.18358 -0.49318626523
13.18857 -0.459624618292
13.19356 -0.530338585377
13.19855 -0.538513541222
13.20354 -0.630928218365
13.20853 -0.622706115246
13.21352 -0.55679756403
13.21851 -0.515851974487
13.2235 -0.482271701097
13.22849 -0.435538470745
13.23348 -0.528621137142
13.23847 -0.537232220173
13.24346 -0.571064293385
13.24845 -0.451721668243
13.25344 -0.454913318157
13.25843 -0.447754055262
13.26342 -0.470232278109
13.26841 -0.415395498276
13.2734 -0.392672300339
13.27839 -0.359926491976
13.28338 -0.284475535154
13.28837 -0.205250024796
13.29336 -0.265115529299
13.29835 -0.18212492764
13.30334 -0.137401521206
13.30833 -0.193014219403
13.31332 -0.272274762392
13.31831 -0.304681867361
13.3233 -0.142723917961
13.32829 -0.0989091992378
13.33328 0.0281200297177
13.33827 0.022407181561
13.34326 -0.089328341186
13.34825 -0.243559271097
13.35324 -0.294235467911
13.35823 -0.243380829692
13.36322 -0.293725579977
13.36821 -0.342833548784
13.3732 -0.354552537203
13.37819 -0.442463666201
13.38318 -0.67817646265
13.38817 -0.740425109863
13.39316 -0.584846794605
13.39815 -0.586290240288
13.40314 -0.590394079685
13.40813 -0.601092100143
13.41312 -0.546880841255
13.41811 -0.499822586775
13.4231 -0.553382337093
13.42809 -0.574145674706
13.43308 -0.496607512236
13.43807 -0.575157701969
13.44306 -0.528251171112
13.44805 -0.451942980289
13.45304 -0.447179824114
13.45803 -0.447493702173
13.46302 -0.490027755499
13.46801 -0.61255300045
13.473 -0.508771359921
13.47799 0.323344260454
13.48298 1.50109362602
13.48797 3.2416074276
13.49296 4.26660442352
13.49795 3.78569936752
13.50294 2.7795894146
13.50793 0.52685624361
13.51292 -2.31104803085
13.51791 -4.52032089233
13.5229 -5.22857570648
13.52789 -4.56446504593
13.53288 -3.32401490211
13.53787 -2.56516838074
13.54286 -1.95924115181
13.54785 -1.26724696159
13.55284 -0.647974610329
13.55783 -0.297471553087
13.56282 -0.0369754657149
13.56781 0.0172323435545
13.5728 0.0977572277188
13.57779 0.0820075795054
13.58278 0.212444454432
13.58777 0.166262894869
13.59276 0.225174888968
13.59775 0.257501989603
13.60274 0.211990818381
13.60773 0.217697679996
13.61272 0.274826943874
13.61771 0.342997461557
13.6227 0.299194544554
13.62769 0.270183056593
13.63268 0.301074773073
13.63767 0.365970313549
13.64266 0.396785616875
13.64765 0.395534694195
13.65264 0.501788198948
13.65763 0.601290762424
13.66262 0.608278334141
13.66761 0.622726202011
13.6726 0.739778161049
13.67759 0.934793651104
13.68258 0.980483710766
13.68757 0.963907837868
13.69256 1.08042097092
13.69755 1.2070595026
13.70254 1.29016423225
13.70753 1.38904500008
13.71252 1.55542576313
13.71751 1.79165887833
13.7225 1.85101056099
13.72749 1.94215166569
13.73248 1.99623334408
13.73747 2.14156150818
13.74246 2.1989839077
13.74745 2.2059340477
13.75244 2.29883813858
13.75743 2.23043990135
13.76242 2.20107579231
13.76741 2.09522461891
13.7724 2.02616024017
13.77739 1.91944897175
13.78238 1.71480989456
13.78737 1.55999267101
13.79236 1.4392966032
13.79735 1.15855765343
13.80234 0.967080771923
13.80733 0.685581445694
13.81232 0.502937018871
13.81731 0.271133929491
13.8223 0.115051791072
13.82729 -0.0785382539034
13.83228 -0.209367051721
13.83727 -0.231049016118
13.84226 -0.363576859236
13.84725 -0.391645014286
13.85224 -0.434580743313
13.85723 -0.469006329775
13.86222 -0.539042949677
13.86721 -0.53017115593
13.8722 -0.559842407703
13.87719 -0.531625032425
13.88218 -0.565311729908
13.88717 -0.580238223076
13.89216 -0.522074818611
13.89715 -0.507731080055
13.90214 -0.478876590729
13.90713 -0.480376064777
13.91212 -0.445893913507
13.91711 -0.444545537233
13.9221 -0.392746329308
13.92709 -0.332456737757
13.93208 -0.29561701417
13.93707 -0.169560790062
13.94206 -0.218510732055
13.94705 -0.279029846191
13.95204 -0.230647727847
13.95703 -0.0859818160534
13.96202 -0.0477266982198
13.96701 -0.0893876254559
13.972 -0.014726774767
13.97699 0.000932458613534
13.98198 -0.023179108277
13.98697 -0.0382625497878
13.99196 -0.0016041919589
13.99695 0.0252226404846
14.00194 -0.0235997922719
14.00693 -0.111015923321
14.01192 -0.198029845953
14.01691 -0.150297999382
14.0219 -0.177757948637
14.02689 -0.187024071813
14.03188 -0.20860722661
14.03687 -0.18737617135
14.04186 -0.241322234273
14.04685 -0.261826783419
14.05184 -0.196216836572
14.05683 -0.213336408138
14.06182 -0.265630871058
14.06681 -0.322792232037
14.0718 -0.381808936596
14.07679 -0.326466888189
14.08178 -0.405693441629
14.08677 -0.422331273556
14.09176 -0.455244868994
14.09675 -0.426861345768
14.10174 -0.432952105999
14.10673 -0.48501971364
14.11172 -0.391907691956
14.11671 -0.427653491497
14.1217 -0.518931984901
14.12669 -0.471917688847
14.13168 -0.308601737022
14.13667 -0.292745620012
14.14166 -0.292094230652
14.14665 -0.39350438118
14.15164 -0.306908637285
14.15663 -0.344101667404
14.16162 -0.318338572979
14.16661 -0.233010485768
14.1716 -0.306140452623
14.17659 -0.290429741144
14.18158 -0.2821611166
14.18657 -0.235813736916
14.19156 -0.242776781321
14.19655 -0.140075132251
14.20154 -0.109811328351
14.20653 0.036787930876
14.21152 -0.0284213088453
14.21651 -0.133549153805
14.2215 -0.0836832970381
14.22649 -0.264831930399
14.23148 -0.127497121692
14.23647 0.0233740471303
14.24146 0.0983662158251
14.24645 0.0875141918659
14.25144 0.114382341504
14.25643 -0.0965713113546
14.26142 -0.320489764214
14.26641 -0.386725693941
14.2714 -0.328649640083
14.27639 -0.362948089838
14.28138 -0.407967686653
14.28637 -0.510038971901
14.29136 -0.637582063675
14.29635 -0.563278377056
14.30134 -0.563847959042
14.30633 -0.586627542973
14.31132 -0.634190320969
14.31631 -0.575180351734
14.3213 -0.640951991081
14.32629 -0.562785804272
14.33128 -0.57180172205
14.33627 -0.573688328266
14.34126 -0.652174830437
14.34625 -0.60113298893
14.35124 -0.388666898012
14.35623 -0.327436774969
14.36122 -0.337534248829
14.36621 -0.372234344482
14.3712 -0.3121265769
14.37619 -0.438488125801
14.38118 -0.436265707016
14.38617 0.276773452759
14.39116 1.37051522732
14.39615 2.89400243759
14.40114 4.0352435112
14.40613 4.2323179245
14.41112 3.30000305176
14.41611 1.39913201332
14.4211 -1.36470770836
14.42609 -3.91476750374
14.43108 -5.13557863235
14.43607 -4.95330142975
14.44106 -3.7841591835
14.44605 -2.91524410248
14.45104 -2.18904256821
14.45603 -1.65296840668
14.46102 -1.07833588123
14.46601 -0.539806485176
14.471 -0.234169259667
14.47599 -0.0914909690619
14.48098 -0.0443474203348
14.48597 0.0756910964847
14.49096 0.105015173554
14.49595 0.00111142219976
14.50094 -0.00385071453638
14.50593 0.195146769285
14.51092 0.151843011379
14.51591 0.156029701233
14.5209 0.196851730347
14.52589 0.266475558281
14.53088 0.28955295682
14.53587 0.23453591764
14.54086 0.186468347907
14.54585 0.23964317143
14.55084 0.373432934284
14.55583 0.43274757266
14.56082 0.400435328484
14.56581 0.367459177971
14.5708 0.547533452511
14.57579 0.591852545738
14.58078 0.699244618416
14.58577 0.754601359367
14.59076 0.799300372601
14.59575 0.819600760937
14.60074 0.885912299156
14.60573 0.989136695862
14.61072 1.11052572727
14.61571 1.28130400181
14.6207 1.27327716351
14.62569 1.37837517262
14.63068 1.63332176208
14.63567 1.80222761631
14.64066 1.81243515015
14.64565 1.89477038383
14.65064 2.00902843475
14.65563 2.10157132149
14.66062 2.13736486435
14.66561 2.10912442207
14.6706 2.12480688095
14.67559 2.00461339951
14.68058 1.87758171558
14.68557 1.82172095776
14.69056 1.66294491291
14.69555 1.60647070408
14.70054 1.39007759094
14.70553 1.14944934845
14.71052 0.966580748558
14.71551 0.670800387859
14.7205 0.403973519802
14.72549 0.2106564641
14.73048 0.101232789457
14.73547 -0.105070151389
14.74046 -0.283114284277
14.74545 -0.230929717422
14.75044 -0.389550298452
14.75543 -0.513795852661
14.76042 -0.594933569431
14.76541 -0.58538466692
14.7704 -0.579533398151
14.77539 -0.564065158367
14.78038 -0.669234573841
14.78537 -0.635088980198
14.79036 -0.642874240875
14.79535 -0.651241183281
14.80034 -0.595536589622
14.80533 -0.698299407959
14.81032 -0.578924059868
14.81531 -0.528483331203
14.8203 -0.546804964542
14.82529 -0.485048979521
14.83028 -0.453930616379
14.83527 -0.353705346584
14.84026 -0.446481525898
14.84525 -0.396027743816
14.85024 -0.341976821423
14.85523 -0.316947728395
14.86022 -0.358101576567
14.86521 -0.333225727081
14.8702 -0.230756208301
14.87519 -0.267094880342
14.88018 -0.207490488887
14.88517 -0.221608221531
14.89016 -0.204458460212
14.89515 -0.17837394774
14.90014 -0.24528850615
14.90513 -0.258345812559
14.91012 -0.204734638333
14.91511 -0.191996961832
14.9201 -0.220416411757
14.92509 -0.31897777319
14.93008 -0.278022915125
14.93507 -0.207046806812
14.94006 -0.124811731279
14.94505 -0.156797930598
14.95004 -0.284567028284
14.95503 -0.376447618008
14.96002 -0.3398681283
14.96501 -0.349447309971
14.97 -0.322265923023
14.97499 -0.386647641659
14.97998 -0.438669860363
14.98497 -0.401053220034
14.98996 -0.312663167715
14.99495 -0.348971247673
14.99994 -0.460286080837
15.00493 -0.474443674088
15.00992 -0.365515768528
15.01491 -0.327084600925
15.0199 -0.421406149864
15.02489 -0.483346432447
15.02988 -0.452378123999
15.03487 -0.367649763823
15.03986 -0.37416690588
15.04485 -0.370247334242
15.04984 -0.325915157795
15.05483 -0.366516232491
15.05982 -0.336736679077
15.06481 -0.371355205774
15.0698 -0.325275480747
15.07479 -0.230094373226
15.07978 -0.115923449397
15.08477 0.000852869299706
15.08976 0.0143540464342
15.09475 0.0613203831017
15.09974 0.0348225198686
15.10473 -0.0231443680823
15.10972 -0.107082724571
15.11471 -0.173762321472
15.1197 -0.0443104840815
15.12469 0.0692751705647
15.12968 0.154080212116
15.13467 0.105742461979
15.13966 0.0225151125342
15.14465 -0.0907885953784
15.14964 -0.230518057942
15.15463 -0.317351281643
15.15962 -0.355281949043
15.16461 -0.369807481766
15.1696 -0.331983298063
15.17459 -0.342293053865
15.17958 -0.453831315041
15.18457 -0.493257135153
15.18956 -0.605581283569
15.19455 -0.517905056477
15.19954 -0.545522153378
15.20453 -0.519976019859
15.20952 -0.467530399561
15.21451 -0.418223321438
15.2195 -0.470136314631
15.22449 -0.407404184341
15.22948 -0.429861962795
15.23447 -0.453477412462
15.23946 -0.494306504726
15.24445 -0.459364026785
15.24944 -0.431051105261
15.25443 -0.415444910526
15.25942 -0.419336020947
15.26441 -0.434711784124
15.2694 -0.577522158623
15.27439 -0.0701508373022
15.27938 0.989783585072
15.28437 2.49079012871
15.28936 3.98680114746
15.29435 4.18122386932
15.29934 3.28449654579
15.30433 1.76736831665
15.30932 -0.770597100258
15.31431 -3.4954161644
15.3193 -5.03547382355
15.32429 -4.77012014389
15.32928 -3.75725364685
15.33427 -2.69791030884
15.33926 -2.05610966682
15.34425 -1.50786733627
15.34924 -0.837150275707
15.35423 -0.347138434649
15.35922 -0.161194130778
15.36421 -0.0455015823245
15.3692 0.00887961126864
15.37419 0.093741774559
15.37918 0.150978475809
15.38417 0.191672712564
15.38916 0.198519542813
15.39415 0.257641583681
15.39914 0.237895205617
15.40413 0.242015182972
15.40912 0.298857092857
15.41411 0.368795335293
15.4191 0.386724352837
15.42409 0.343444257975
15.42908 0.326898157597
15.43407 0.33205345273
15.43906 0.408785432577
15.44405 0.342107474804
15.44904 0.4039478302
15.45403 0.431774973869
15.45902 0.34641033411
15.46401 0.590017616749
15.469 0.685782194138
15.47399 0.769762933254
15.47898 0.811506390572
15.48397 0.85303992033
15.48896 0.973335504532
15.49395 1.00701439381
15.49894 1.22186517715
15.50393 1.26286554337
15.50892 1.41230022907
15.51391 1.52033853531
15.5189 1.69463038445
15.52389 1.79892003536
15.52888 1.90151298046
15.53387 2.02208590508
15.53886 2.0448949337
15.54385 2.07554745674
15.54884 2.09116053581
15.55383 2.16006422043
15.55882 2.08258843422
15.56381 2.00337314606
15.5688 1.90702581406
15.57379 1.82402515411
15.57878 1.74431657791
15.58377 1.51696956158
15.58876 1.33670520782
15.59375 1.13888585567
15.59874 0.894416630268
15.60373 0.704518973827
15.60872 0.499319851398
15.61371 0.314438849688
15.6187 0.167952597141
15.62369 -0.145253911614
15.62868 -0.223874509335
15.63367 -0.264695316553
15.63866 -0.361638009548
15.64365 -0.445316821337
15.64864 -0.608880281448
15.65363 -0.576755166054
15.65862 -0.554515600204
15.66361 -0.782760798931
15.6686 -0.754128873348
15.67359 -0.668080568314
15.67858 -0.709083795547
15.68357 -0.755786836147
15.68856 -0.715099513531
15.69355 -0.60808724165
15.69854 -0.611584603786
15.70353 -0.690912842751
15.70852 -0.711134672165
15.71351 -0.560183167458
15.7185 -0.566234588623
15.72349 -0.466677308083
15.72848 -0.361403793097
15.73347 -0.334584921598
15.73846 -0.28993549943
15.74345 -0.303892076015
15.74844 -0.333849161863
15.75343 -0.320040792227
15.75842 -0.230495527387
15.76341 -0.182672590017
15.7684 -0.108499914408
15.77339 -0.154549345374
15.77838 -0.165863856673
15.78337 -0.195370301604
15.78836 -0.183423355222
15.79335 -0.203748092055
15.79834 -0.27781483531
15.80333 -0.233799502254
15.80832 -0.321032226086
15.81331 -0.264913678169
15.8183 -0.193679347634
15.82329 -0.248402297497
15.82828 -0.353343814611
15.83327 -0.373765707016
15.83826 -0.396100729704
15.84325 -0.364374577999
15.84824 -0.304860591888
15.85323 -0.421374827623
15.85822 -0.381529122591
15.86321 -0.379757463932
15.8682 -0.355905205011
15.87319 -0.394160330296
15.87818 -0.44280180335
15.88317 -0.381494700909
15.88816 -0.444197505713
15.89315 -0.441676676273
15.89814 -0.467965424061
15.90313 -0.446187794209
15.90812 -0.444422453642
15.91311 -0.366693139076
15.9181 -0.381637513638
15.92309 -0.432738870382
15.92808 -0.392717838287
15.93307 -0.367421776056
15.93806 -0.382521897554
15.94305 -0.370517849922
15.94804 -0.514918506145
15.95303 -0.403052031994
15.95802 -0.48557510972
15.96301 -0.372901707888
15.968 -0.31665250659
15.97299 -0.21624070406
15.97798 -0.124041296542
15.98297 -0.0987465083599
15.98796 -0.0887222141027
15.99295 -0.0143516296521
15.99794 -0.0127098672092
16.00293 -0.0360049903393
16.00792 -0.184300467372
16.01291 -0.1243070364
16.0179 0.0553299337626
16.02289 0.156598940492
16.02788 0.229541584849
16.03287 0.119629092515
16.03786 -0.00114567403216
16.04285 -0.141218692064
16.04784 -0.293943881989
16.05283 -0.268402725458
16.05782 -0.355135858059
16.06281 -0.417309910059
16.0678 -0.455370277166
16.07279 -0.542231857777
16.07778 -0.666210651398
16.08277 -0.828636646271
16.08776 -0.818282842636
16.09275 -0.709600090981
16.09774 -0.659089446068
16.10273 -0.580381035805
16.10772 -0.542260825634
16.11271 -0.581073105335
16.1177 -0.680454194546
16.12269 -0.569537818432
16.12768 -0.496965348721
16.13267 -0.443970471621
16.13766 -0.478295564651
16.14265 -0.480938851833
16.14764 -0.471377551556
16.15263 -0.419079601765
16.15762 -0.41696575284
16.16261 -0.603510200977
16.1676 -0.579970896244
16.17259 0.339541018009
16.17758 1.53357172012
16.18257 2.91796469688
16.18756 3.90262794495
16.19255 3.25076150894
16.19754 2.08693242073
16.20253 0.0606584474444
16.20752 -2.46460366249
16.21251 -4.63428640366
16.2175 -5.32547235489
16.22249 -4.55274343491
16.22748 -3.27974295616
16.23247 -2.46552562714
16.23746 -1.79260706902
16.24245 -1.13033771515
16.24744 -0.588376164436
16.25243 -0.0976358130574
16.25742 0.0163530223072
16.26241 0.0816961228848
16.2674 0.144129827619
16.27239 0.155169069767
16.27738 0.266304045916
16.28237 0.205815091729
16.28736 0.258735537529
16.29235 0.330193281174
16.29734 0.315173208714
16.30233 0.294601380825
16.30732 0.346717327833
16.31231 0.46562319994
16.3173 0.414443075657
16.32229 0.360220164061
16.32728 0.361275017262
16.33227 0.389750629663
16.33726 0.412655442953
16.34225 0.409114003181
16.34724 0.473724782467
16.35223 0.539214789867
16.35722 0.660481274128
16.36221 0.633346617222
16.3672 0.713406383991
16.37219 0.863290429115
16.37718 0.834204018116
16.38217 0.8975918293
16.38716 0.963371455669
16.39215 1.03784525394
16.39714 1.09643518925
16.40213 1.26977932453
16.40712 1.33669555187
16.41211 1.64915394783
16.4171 1.7311950922
16.42209 1.87080705166
16.42708 2.00116157532
16.43207 2.11251568794
16.43706 2.15774273872
16.44205 2.17231106758
16.44704 2.1538040638
16.45203 2.16488265991
16.45702 2.20671486855
16.46201 2.09694671631
16.467 2.00793886185
16.47199 1.91805875301
16.47698 1.78213632107
16.48197 1.58565187454
16.48696 1.39820659161
16.49195 1.19551408291
16.49694 0.958127915859
16.50193 0.661793529987
16.50692 0.400424331427
16.51191 0.33141285181
16.5169 0.12868270278
16.52189 -0.0388152711093
16.52688 -0.186121627688
16.53187 -0.293851822615
16.53686 -0.373317778111
16.54185 -0.552558600903
16.54684 -0.487077742815
16.55183 -0.485048234463
16.55682 -0.426212757826
16.56181 -0.465746819973
16.5668 -0.534286081791
16.57179 -0.507610559464
16.57678 -0.503492772579
16.58177 -0.591530263424
16.58676 -0.582424521446
16.59175 -0.422628551722
16.59674 -0.358455628157
16.60173 -0.390941649675
16.60672 -0.415394246578
16.61171 -0.370909482241
16.6167 -0.286515295506
16.62169 -0.305743873119
16.62668 -0.362091332674
16.63167 -0.342713236809
16.63666 -0.338147342205
16.64165 -0.296148329973
16.64664 -0.189045026898
16.65163 -0.142895758152
16.65662 -0.124435164034
16.66161 -0.132977515459
16.6666 -0.113152034581
16.67159 -0.0795310586691
16.67658 -0.124153286219
16.68157 -0.120545193553
16.68656 -0.0642123669386
16.69155 -0.14081145823
16.69654 -0.269980609417
16.70153 -0.368710935116
16.70652 -0.255058556795
16.71151 -0.109507963061
16.7165 -0.109724856913
16.72149 -0.153012633324
16.72648 -0.188889473677
16.73147 -0.195449799299
16.73646 -0.198413163424
16.74145 -0.229682460427
16.74644 -0.238296061754
16.75143 -0.293405890465
16.75642 -0.371979862452
16.76141 -0.491539686918
16.7664 -0.451485961676
16.77139 -0.507200181484
16.77638 -0.620627164841
16.78137 -0.591927826405
16.78636 -0.60428071022
16.79135 -0.655995726585
16.79634 -0.706318378448
16.80133 -0.656897425652
16.80632 -0.631990790367
16.81131 -0.593056976795
16.8163 -0.605658590794
16.82129 -0.717899024487
16.82628 -0.680279135704
16.83127 -0.681579232216
16.83626 -0.817242145538
16.84125 -0.705897152424
16.84624 -0.672147929668
16.85123 -0.668628633022
16.85622 -0.665168106556
16.86121 -0.583124697208
16.8662 -0.511933982372
16.87119 -0.344689369202
16.87618 -0.352930098772
16.88117 -0.392599344254
16.88616 -0.310021191835
16.89115 -0.320156991482
16.89614 -0.425530642271
16.90113 -0.391727864742
16.90612 -0.2273696661
16.91111 -0.0626663267612
16.9161 -0.0996713116765
16.92109 -0.136817231774
16.92608 -0.247827664018
16.93107 -0.46956756711
16.93606 -0.485749363899
16.94105 -0.566841483116
16.94604 -0.562711834908
16.95103 -0.471195012331
16.95602 -0.62361562252
16.96101 -0.762098073959
16.966 -0.847394764423
16.97099 -0.835607469082
16.97598 -0.802960634232
16.98097 -0.716605305672
16.98596 -0.759795844555
16.99095 -0.719753265381
16.99594 -0.703281462193
17.00093 -0.767361879349
17.00592 -0.647197663784
17.01091 -0.645994305611
17.0159 -0.627842068672
17.02089 -0.691193580627
17.02588 -0.609565377235
17.03087 -0.535240888596
17.03586 -0.565909266472
17.04085 -0.454006969929
17.04584 -0.435854643583
17.05083 -0.605147540569
17.05582 -0.352742195129
17.06081 0.561089754105
17.0658 1.79342567921
17.07079 3.28298711777
17.07578 3.76128768921
17.08077 3.15409779549
17.08576 1.768902421
17.09075 -0.80388879776
17.09574 -3.26378703117
17.10073 -4.96670770645
17.10572 -5.14155292511
17.11071 -4.22941493988
17.1157 -3.26132082939
17.12069 -2.47247767448
17.12568 -1.79796147346
17.13067 -1.20844769478
17.13566 -0.70638358593
17.14065 -0.380015283823
17.14564 -0.213568404317
17.15063 -0.0740099176764
17.15562 0.0468421429396
17.16061 0.21862976253
17.1656 0.163845583797
17.17059 0.244084984064
17.17558 0.148678705096
17.18057 0.14419285953
17.18556 0.21284712851
17.19055 0.266972094774
17.19554 0.224223330617
17.20053 0.220435008407
17.20552 0.250377893448
17.21051 0.303829014301
17.2155 0.249367266893
17.22049 0.344672054052
17.22548 0.336717486382
17.23047 0.404901176691
17.23546 0.350256055593
17.24045 0.455893605947
17.24544 0.509621024132
17.25043 0.567773222923
17.25542 0.650247454643
17.26041 0.790176570415
17.2654 0.797150015831
17.27039 0.883629083633
17.27538 0.925288259983
17.28037 1.00084900856
17.28536 1.03506803513
17.29035 1.28235292435
17.29534 1.44521296024
17.30033 1.58638966084
17.30532 1.6385256052
17.31031 1.73613643646
17.3153 1.80785095692
17.32029 1.9217890501
17.32528 2.0376200676
17.33027 2.06318163872
17.33526 2.03630614281
17.34025 1.96169996262
17.34524 1.91470885277
17.35023 1.83999431133
17.35522 1.77403402328
17.36021 1.64893603325
17.3652 1.57830297947
17.37019 1.34335482121
17.37518 1.12809753418
17.38017 0.862992405891
17.38516 0.777078449726
17.39015 0.542424380779
17.39514 0.329670459032
17.40013 0.125815480947
17.40512 0.000541157787666
17.41011 -0.0719867199659
17.4151 -0.283558756113
17.42009 -0.336888372898
17.42508 -0.352604925632
17.43007 -0.32493981719
17.43506 -0.384299904108
17.44005 -0.497817367315
17.44504 -0.636374115944
17.45003 -0.624174237251
17.45502 -0.576833724976
17.46001 -0.638516843319
17.465 -0.585159063339
17.46999 -0.610896885395
17.47498 -0.540325701237
17.47997 -0.466835379601
17.48496 -0.534465670586
17.48995 -0.506556928158
17.49494 -0.380271911621
17.49993 -0.334206998348
17.50492 -0.406610131264
17.50991 -0.278255790472
17.5149 -0.245800718665
17.51989 -0.247856900096
17.52488 -0.180109098554
17.52987 -0.214317411184
17.53486 -0.194573834538
17.53985 -0.22368298471
17.54484 -0.13132108748
17.54983 -0.176238521934
17.55482 -0.0942012742162
17.55981 -0.0391266085207
17.5648 -0.0563780851662
17.56979 -0.0597754754126
17.57478 -0.105296865106
17.57977 -0.127347514033
17.58476 -0.144042953849
17.58975 -0.0973188579082
17.59474 -0.155694574118
17.59973 -0.152482360601
17.60472 -0.107511624694
17.60971 -0.109892964363
17.6147 -0.166478842497
17.61969 -0.164894223213
17.62468 -0.220099836588
17.62967 -0.245488867164
17.63466 -0.254212707281
17.63965 -0.279577255249
17.64464 -0.208904713392
17.64963 -0.208208277822
17.65462 -0.289678186178
17.65961 -0.291068822145
17.6646 -0.260661780834
17.66959 -0.283200740814
17.67458 -0.350249201059
17.67957 -0.279902547598
17.68456 -0.31272238493
17.68955 -0.232499390841
17.69454 -0.225991681218
17.69953 -0.316757798195
17.70452 -0.322365254164
17.70951 -0.245986744761
17.7145 -0.216651558876
17.71949 -0.180671200156
17.72448 -0.306848824024
17.72947 -0.340913265944
17.73446 -0.280846953392
17.73945 -0.273253053427
17.74444 -0.306179314852
17.74943 -0.18968693912
17.75442 -0.220004796982
17.75941 -0.210631579161
17.7644 -0.0575420111418
17.76939 -0.00434868130833
17.77438 -0.00571667635813
17.77937 0.0403958633542
17.78436 0.103902049363
17.78935 0.121507905424
17.79434 0.0223964117467
17.79933 -0.069229491055
17.80432 -0.0217244252563
17.80931 0.104709625244
17.8143 0.230221182108
17.81929 0.242263913155
17.82428 0.182866722345
17.82927 0.0735729336739
17.83426 -0.115607835352
17.83925 -0.145795464516
17.84424 -0.207909345627
17.84923 -0.239390328526
17.85422 -0.15525123477
17.85921 -0.310124903917
17.8642 -0.390943229198
17.86919 -0.523046195507
17.87418 -0.506892025471
17.87917 -0.539682686329
17.88416 -0.480854421854
17.88915 -0.509790718555
17.89414 -0.505904555321
17.89913 -0.589432179928
17.90412 -0.555621802807
17.90911 -0.523089289665
17.9141 -0.494984835386
17.91909 -0.441215097904
17.92408 -0.45551264286
17.92907 -0.408334612846
17.93406 -0.370521128178
17.93905 -0.367873162031
17.94404 -0.440788418055
17.94903 -0.36864849925
17.95402 -0.532432258129
17.95901 -0.184808403254
17.964 0.921812057495
17.96899 2.36955571175
17.97398 3.79401683807
17.97897 4.01431655884
17.98396 2.96714067459
17.98895 1.51226234436
17.99394 -0.992388188839
17.99893 -3.56954550743
18.00392 -5.0910153389
18.00891 -4.86910533905
18.0139 -3.82668161392
18.01889 -2.75107002258
18.02388 -1.95170378685
18.02887 -1.47957599163
18.03386 -0.815486371517
18.03885 -0.30214291811
18.04384 -0.00973736215383
18.04883 0.0722187459469
18.05382 0.0710745081306
18.05881 0.113619163632
18.0638 0.164737910032
18.06879 0.149201467633
18.07378 0.246533453465
18.07877 0.260463953018
18.08376 0.388411134481
18.08875 0.388287216425
18.09374 0.386586666107
18.09873 0.385614305735
18.10372 0.412637382746
18.10871 0.377755522728
18.1137 0.387736856937
18.11869 0.457345545292
18.12368 0.571438014507
18.12867 0.603491187096
18.13366 0.467602193356
18.13865 0.644675970078
18.14364 0.703178942204
18.14863 0.754129528999
18.15362 0.622919499874
18.15861 0.707887172699
18.1636 0.811067044735
18.16859 0.951214849949
18.17358 1.0843077898
18.17857 1.04588699341
18.18356 1.23753905296
18.18855 1.31266069412
18.19354 1.4338581562
18.19853 1.54457581043
18.20352 1.84614396095
18.20851 1.92437195778
18.2135 1.90217840672
18.21849 1.93613803387
18.22348 2.08134746552
18.22847 2.16012048721
18.23346 2.15408086777
18.23845 2.16292285919
18.24344 2.1940536499
18.24843 2.12492442131
18.25342 1.9956870079
18.25841 1.85257458687
18.2634 1.83083963394
18.26839 1.67515611649
18.27338 1.47412657738
18.27837 1.32878506184
18.28336 1.19203484058
18.28835 0.890875101089
18.29334 0.666002035141
18.29833 0.477063894272
18.30332 0.301868140697
18.30831 0.116776876152
18.3133 -0.0339407026768
18.31829 -0.0769750699401
18.32328 -0.213344231248
18.32827 -0.256808757782
18.33326 -0.346721917391
18.33825 -0.41626650095
18.34324 -0.463902831078
18.34823 -0.50630402565
18.35322 -0.473014563322
18.35821 -0.469806402922
18.3632 -0.526108264923
18.36819 -0.61436522007
18.37318 -0.572642922401
18.37817 -0.537336587906
18.38316 -0.454201549292
18.38815 -0.438235789537
18.39314 -0.482396364212
18.39813 -0.449607312679
18.40312 -0.34479612112
18.40811 -0.326417207718
18.4131 -0.305436909199
18.41809 -0.311897784472
18.42308 -0.184073984623
18.42807 -0.176900222898
18.43306 -0.264334380627
18.43805 -0.22297462821
18.44304 -0.125478491187
18.44803 -0.164663404226
18.45302 -0.0996387675405
18.45801 -0.124121032655
18.463 -0.211258113384
18.46799 -0.198890149593
18.47298 -0.176451489329
18.47797 -0.177079737186
18.48296 -0.198360323906
18.48795 -0.135275393724
18.49294 -0.348909586668
18.49793 -0.250961840153
18.50292 -0.2034984231
18.50791 -0.334411263466
18.5129 -0.245444700122
18.51789 -0.230280920863
18.52288 -0.266864597797
18.52787 -0.268310308456
18.53286 -0.331692188978
18.53785 -0.355817198753
18.54284 -0.318617105484
18.54783 -0.33123794198
18.55282 -0.343057006598
18.55781 -0.479398071766
18.5628 -0.467519521713
18.56779 -0.371410608292
18.57278 -0.432570070028
18.57777 -0.354337066412
18.58276 -0.405429154634
18.58775 -0.455687135458
18.59274 -0.418864160776
18.59773 -0.54336720705
18.60272 -0.307935357094
18.60771 -0.358704656363
18.6127 -0.35341501236
18.61769 -0.366641491652
18.62268 -0.420597553253
18.62767 -0.480690360069
18.63266 -0.404161483049
18.63765 -0.433003276587
18.64264 -0.396045327187
18.64763 -0.293361008167
18.65262 -0.218827918172
18.65761 -0.0854899063706
18.6626 -0.169680535793
18.66759 -0.0887332037091
18.67258 -0.155179679394
18.67757 -0.0745921507478
18.68256 -0.0714087635279
18.68755 -0.111630797386
18.69254 -0.0904232561588
18.69753 -0.0401046350598
18.70252 0.050382912159
18.70751 0.100985966623
18.7125 0.0622113980353
18.71749 -0.0492640174925
18.72248 -0.146697342396
18.72747 -0.308411300182
18.73246 -0.386530250311
18.73745 -0.378423064947
18.74244 -0.290149867535
18.74743 -0.3340061903
18.75242 -0.4813144207
18.75741 -0.72269064188
18.7624 -0.61653226614
18.76739 -0.554058551788
18.77238 -0.509590744972
18.77737 -0.632537007332
18.78236 -0.601445198059
18.78735 -0.55526715517
18.79234 -0.536519765854
18.79733 -0.53293889761
18.80232 -0.538468539715
18.80731 -0.454914748669
18.8123 -0.363782763481
18.81729 -0.457969218493
18.82228 -0.484377920628
18.82727 -0.453716039658
18.83226 -0.39157563448
18.83725 -0.373012691736
18.84224 -0.482094228268
18.84723 -0.179198637605
18.85222 0.713506937027
18.85721 1.8706433773
18.8622 3.45420622826
18.86719 4.04392004013
18.87218 3.72735381126
18.87717 2.28167414665
18.88216 -0.314597308636
18.88715 -2.76339292526
18.89214 -4.73856306076
18.89713 -5.14725542068
18.90212 -4.30377578735
18.90711 -3.19355726242
18.9121 -2.49791884422
18.91709 -1.95043778419
18.92208 -1.4061768055
18.92707 -0.779364943504
18.93206 -0.347431302071
18.93705 -0.266631960869
18.94204 -0.131122127175
18.94703 0.0743901133537
18.95202 0.176469713449
18.95701 0.185656473041
18.962 0.160940274596
18.96699 0.214417755604
18.97198 0.237987026572
18.97697 0.111483603716
18.98196 0.224400371313
18.98695 0.27396979928
18.99194 0.324116796255
18.99693 0.336747765541
19.00192 0.263936758041
19.00691 0.289492607117
19.0119 0.38425758481
19.01689 0.407806903124
19.02188 0.365577667952
19.02687 0.392885863781
19.03186 0.531855106354
19.03685 0.553659915924
19.04184 0.493199139833
19.04683 0.620676457882
19.05182 0.678854167461
19.05681 0.763542354107
19.0618 0.855171442032
19.06679 0.921697020531
19.07178 1.04170918465
19.07677 1.17312991619
19.08176 1.25403249264
19.08675 1.45985376835
19.09174 1.60253965855
19.09673 1.67280209064
19.10172 1.76867163181
19.10671 1.87380766869
19.1117 1.89127612114
19.11669 2.04681706429
19.12168 2.10402178764
19.12667 2.04040551186
19.13166 1.97237563133
19.13665 1.94693934917
19.14164 1.89012551308
19.14663 1.80501067638
19.15162 1.6875269413
19.15661 1.52298331261
19.1616 1.45258867741
19.16659 1.30538594723
19.17158 1.11494982243
19.17657 0.826032400131
19.18156 0.592578113079
19.18655 0.45518052578
19.19154 0.311976373196
19.19653 0.0750504359603
19.20152 -0.216471120715
19.20651 -0.305768877268
19.2115 -0.331215173006
19.21649 -0.467169702053
19.22148 -0.589811503887
19.22647 -0.518556594849
19.23146 -0.572336316109
19.23645 -0.666998147964
19.24144 -0.639133930206
19.24643 -0.620225071907
19.25142 -0.549141585827
19.25641 -0.543900847435
19.2614 -0.575520694256
19.26639 -0.604157447815
19.27138 -0.647670209408
19.27637 -0.596347630024
19.28136 -0.553883492947
19.28635 -0.442631572485
19.29134 -0.447206884623
19.29633 -0.408381700516
19.30132 -0.391336739063
19.30631 -0.366405010223
19.3113 -0.370931446552
19.31629 -0.297687113285
19.32128 -0.35454133153
19.32627 -0.326021015644
19.33126 -0.234317556024
19.33625 -0.410678237677
19.34124 -0.302320241928
19.34623 -0.290367931128
19.35122 -0.198806017637
19.35621 -0.186858043075
19.3612 -0.189140602946
19.36619 -0.236560344696
19.37118 -0.246934518218
19.37617 -0.251272648573
19.38116 -0.351674228907
19.38615 -0.223325997591
19.39114 -0.261712104082
19.39613 -0.301017969847
19.40112 -0.337342530489
19.40611 -0.285856753588
19.4111 -0.349407196045
19.41609 -0.301932275295
19.42108 -0.350813150406
19.42607 -0.42031827569
19.43106 -0.397824198008
19.43605 -0.442320913076
19.44104 -0.500750660896
19.44603 -0.382691800594
19.45102 -0.400207698345
19.45601 -0.454183012247
19.461 -0.584562838078
19.46599 -0.531108140945
19.47098 -0.528125405312
19.47597 -0.519538998604
19.48096 -0.42371353507
19.48595 -0.418618440628
19.49094 -0.425613790751
19.49593 -0.443978339434
19.50092 -0.40001091361
19.50591 -0.418018251657
19.5109 -0.399359285831
19.51589 -0.309213846922
19.52088 -0.376282453537
19.52587 -0.241002991796
19.53086 -0.163995325565
19.53585 -0.160888269544
19.54084 -0.124513663352
19.54583 -0.0279478356242
19.55082 -0.0388596914709
19.55581 0.0756000876427
19.5608 -0.0243480149657
19.56579 -0.134063050151
19.57078 -0.111236058176
19.57577 -0.0184164680541
19.58076 0.144192278385
19.58575 0.00616409024224
19.59074 0.0453542508185
19.59573 -0.228103771806
19.60072 -0.20432344079
19.60571 -0.208914503455
19.6107 -0.182920783758
19.61569 -0.290368914604
19.62068 -0.352254122496
19.62567 -0.480746746063
19.63066 -0.543971836567
19.63565 -0.654401779175
19.64064 -0.580644786358
19.64563 -0.546340286732
19.65062 -0.556465566158
19.65561 -0.640061736107
19.6606 -0.605443954468
19.66559 -0.597139179707
19.67058 -0.569342434406
19.67557 -0.615450263023
19.68056 -0.61758428812
19.68555 -0.645588099957
19.69054 -0.569862365723
19.69553 -0.531599223614
19.70052 -0.481778919697
19.70551 -0.44388115406
19.7105 -0.504617333412
19.71549 -0.702422857285
19.72048 -0.532622754574
19.72547 0.349143236876
19.73046 1.73445308208
19.73545 3.32703304291
19.74044 4.2239484787
19.74543 3.69091486931
19.75042 2.47754263878
19.75541 0.0894473493099
19.7604 -2.74531078339
19.76539 -4.71136283875
19.77038 -5.12661886215
19.77537 -4.21973514557
19.78036 -3.06718182564
19.78535 -2.23454499245
19.79034 -1.66567063332
19.79533 -1.10807156563
19.80032 -0.539825439453
19.80531 -0.242270842195
19.8103 -0.152963727713
19.81529 -0.134908899665
19.82028 -0.012393752113
19.82527 0.0820411220193
19.83026 0.135690763593
19.83525 0.104486122727
19.84024 0.113917522132
19.84523 0.12075906992
19.85022 0.111738979816
19.85521 0.153113260865
19.8602 0.247840419412
19.86519 0.30736669898
19.87018 0.240315824747
19.87517 0.181469783187
19.88016 0.197101160884
19.88515 0.304508209229
19.89014 0.338676095009
19.89513 0.356462001801
19.90012 0.4339671731
19.90511 0.467106878757
19.9101 0.465956419706
19.91509 0.518809497356
19.92008 0.556686460972
19.92507 0.752711236477
19.93006 0.802222907543
19.93505 0.82028979063
19.94004 0.944450438023
19.94503 1.11263048649
19.95002 1.2138761282
19.95501 1.2712239027
19.96 1.41908538342
19.96499 1.61071288586
19.96998 1.7874121666
19.97497 1.76050567627
19.97996 1.93373394012
19.98495 2.0347340107
19.98994 2.10072994232
19.99493 2.06323766708
19.99992 1.97461843491
20.00491 2.11055135727
20.0099 2.01188731194
20.01489 1.91596782207
20.01988 1.77775704861
20.02487 1.69962525368
20.02986 1.58753275871
20.03485 1.40371930599
20.03984 1.18010592461
20.04483 0.990303039551
20.04982 0.776428341866
20.05481 0.516265392303
20.0598 0.317454338074
20.06479 0.213922768831
20.06978 0.012900617905
20.07477 -0.133986115456
20.07976 -0.222232282162
20.08475 -0.324819117785
20.08974 -0.399184197187
20.09473 -0.448574572802
20.09972 -0.561144948006
20.10471 -0.573624491692
20.1097 -0.587515711784
20.11469 -0.564285159111
20.11968 -0.575528085232
20.12467 -0.59686589241
20.12966 -0.598171532154
20.13465 -0.590968906879
20.13964 -0.565207540989
20.14463 -0.57102817297
20.14962 -0.460523456335
20.15461 -0.505299210548
20.1596 -0.45252519846
20.16459 -0.371066123247
20.16958 -0.422101318836
20.17457 -0.34222728014
20.17956 -0.317531734705
20.18455 -0.233816772699
20.18954 -0.196113154292
20.19453 -0.167655199766
20.19952 -0.253542482853
20.20451 -0.0830596238375
20.2095 -0.147407710552
20.21449 -0.227614507079
20.21948 -0.153053790331
20.22447 -0.148027569056
20.22946 -0.158641591668
20.23445 -0.152352765203
20.23944 -0.0683618038893
20.24443 -0.097945779562
20.24942 -0.154582545161
20.25441 -0.16394045949
20.2594 -0.133806422353
20.26439 -0.148240998387
20.26938 -0.201899647713
20.27437 -0.299742400646
20.27936 -0.26017421484
20.28435 -0.299634128809
20.28934 -0.25169095397
20.29433 -0.165348991752
20.29932 -0.273504108191
20.30431 -0.282200306654
20.3093 -0.386398166418
20.31429 -0.305230855942
20.31928 -0.315224319696
20.32427 -0.318942278624
20.32926 -0.296745717525
20.33425 -0.380376964808
20.33924 -0.438982754946
20.34423 -0.381440281868
20.34922 -0.373686492443
20.35421 -0.356728315353
20.3592 -0.352145373821
20.36419 -0.342858374119
20.36918 -0.371697127819
20.37417 -0.369490146637
20.37916 -0.329463243484
20.38415 -0.305905252695
20.38914 -0.319861799479
20.39413 -0.331470817327
20.39912 -0.34278011322
20.40411 -0.182790994644
20.4091 -0.134744107723
20.41409 -0.118606030941
20.41908 -0.165371775627
20.42407 0.14001147449
20.42906 0.0500909946859
20.43405 0.0484289862216
20.43904 -0.024564826861
20.44403 -0.0587540753186
20.44902 -0.0370635464787
20.45401 0.0564744397998
20.459 0.121369533241
20.46399 0.117950730026
20.46898 0.0552858412266
20.47397 -0.176246851683
20.47896 -0.300230383873
20.48395 -0.222429320216
20.48894 -0.262102246284
20.49393 -0.375481516123
20.49892 -0.398695200682
20.50391 -0.484608530998
20.5089 -0.646492362022
20.51389 -0.675026774406
20.51888 -0.629084408283
20.52387 -0.526567280293
20.52886 -0.521719276905
20.53385 -0.511364579201
20.53884 -0.602360606194
20.54383 -0.525181829929
20.54882 -0.547603607178
20.55381 -0.64805072546
20.5588 -0.638763189316
20.56379 -0.577292561531
20.56878 -0.500029563904
20.57377 -0.462242901325
20.57876 -0.463440358639
20.58375 -0.375935822725
20.58874 -0.473074913025
20.59373 -0.485074013472
20.59872 -0.452625334263
20.60371 0.433631956577
20.6087 1.85392427444
20.61369 3.18382048607
20.61868 4.07120370865
20.62367 3.21433544159
20.62866 1.91216230392
20.63365 -0.186688408256
20.63864 -2.87433385849
20.64363 -4.92389965057
20.64862 -5.23517990112
20.65361 -4.35803937912
20.6586 -3.19590044022
20.66359 -2.30993461609
20.66858 -1.73765003681
20.67357 -1.07167077065
20.67856 -0.544079601765
20.68355 -0.10553971678
20.68854 -0.0133808264509
20.69353 -0.0703113824129
20.69852 0.0859848037362
20.70351 0.154531553388
20.7085 0.163534253836
20.71349 0.194445997477
20.71848 0.160603046417
20.72347 0.267110705376
20.72846 0.251162737608
20.73345 0.282212942839
20.73844 0.223329156637
20.74343 0.366620719433
20.74842 0.325704991817
20.75341 0.198081195354
20.7584 0.274187594652
20.76339 0.411216169596
20.76838 0.411728858948
20.77337 0.376315802336
20.77836 0.473809301853
20.78335 0.546075940132
20.78834 0.661213219166
20.79333 0.639316499233
20.79832 0.650361955166
20.80331 0.857209086418
20.8083 0.834581375122
20.81329 0.903795480728
20.81828 1.01140844822
20.82327 1.15454208851
20.82826 1.35826432705
20.83325 1.39073061943
20.83824 1.48821699619
20.84323 1.64236438274
20.84822 1.69593346119
20.85321 1.8285009861
20.8582 1.81306087971
20.86319 2.03019857407
20.86818 2.10704064369
20.87317 2.11704039574
20.87816 2.05448794365
20.88315 2.11972117424
20.88814 2.03306674957
20.89313 1.96880674362
20.89812 1.86782312393
20.90311 1.77123248577
20.9081 1.62342488766
20.91309 1.48220133781
20.91808 1.23130631447
20.92307 1.09858620167
20.92806 0.886875271797
20.93305 0.657623827457
20.93804 0.43175059557
20.94303 0.273577451706
20.94802 0.0622347779572
20.95301 -0.0931370034814
20.958 -0.184047371149
20.96299 -0.192377775908
20.96798 -0.32535392046
20.97297 -0.416736900806
20.97796 -0.448237985373
20.98295 -0.518600463867
20.98794 -0.499950796366
20.99293 -0.592778623104
20.99792 -0.598940849304
21.00291 -0.594083189964
21.0079 -0.464656621218
21.01289 -0.495057970285
21.01788 -0.534742772579
21.02287 -0.4426882267
21.02786 -0.42845377326
21.03285 -0.481807887554
21.03784 -0.471385627985
21.04283 -0.4432323277
21.04782 -0.403714984655
21.05281 -0.407463997602
21.0578 -0.323120325804
21.06279 -0.26922956109
21.06778 -0.202903568745
21.07277 -0.256192952394
21.07776 -0.222417205572
21.08275 -0.182038456202
21.08774 -0.140544772148
21.09273 -0.193039387465
21.09772 -0.159807130694
21.10271 -0.10789757967
21.1077 -0.0904942676425
21.11269 -0.117237277329
21.11768 -0.109881907701
21.12267 -0.169050469995
21.12766 -0.151147291064
21.13265 -0.242521196604
21.13764 -0.186431258917
21.14263 -0.182999059558
21.14762 -0.212329238653
21.15261 -0.339719891548
21.1576 -0.348584353924
21.16259 -0.38407933712
21.16758 -0.350474864244
21.17257 -0.329425364733
21.17756 -0.325488507748
21.18255 -0.27103048563
21.18754 -0.335964411497
21.19253 -0.414340794086
21.19752 -0.351814866066
21.20251 -0.274886548519
21.2075 -0.298175781965
21.21249 -0.324483692646
21.21748 -0.437651753426
21.22247 -0.374221384525
21.22746 -0.362629175186
21.23245 -0.314363449812
21.23744 -0.338308215141
21.24243 -0.359447091818
21.24742 -0.348135590553
21.25241 -0.390189677477
21.2574 -0.327729403973
21.26239 -0.310602068901
21.26738 -0.235363855958
21.27237 -0.302196651697
21.27736 -0.227842792869
21.28235 -0.149801984429
21.28734 -0.0738080963492
21.29233 -0.0766145139933
21.29732 -0.138343751431
21.30231 0.062265239656
21.3073 0.0731992945075
21.31229 -0.0483627021313
21.31728 -0.133116513491
21.32227 -0.0635092258453
21.32726 0.141985043883
21.33225 0.196484833956
21.33724 0.107747010887
21.34223 0.166775405407
21.34722 -0.00528165418655
21.35221 -0.161928415298
21.3572 -0.290832668543
21.36219 -0.334833651781
21.36718 -0.369534701109
21.37217 -0.352566987276
21.37716 -0.491565287113
21.38215 -0.617634654045
21.38714 -0.470245063305
21.39213 -0.607616961002
21.39712 -0.578517198563
21.40211 -0.616574645042
21.4071 -0.632072687149
21.41209 -0.608600199223
21.41708 -0.53246563673
21.42207 -0.492617070675
21.42706 -0.479863673449
21.43205 -0.470340371132
21.43704 -0.520016551018
21.44203 -0.454322755337
21.44702 -0.442713737488
21.45201 -0.568975090981
21.457 -0.457545816898
21.46199 -0.358771562576
21.46698 -0.355643510818
21.47197 -0.378584712744
21.47696 0.233219340444
21.48195 1.41287958622
21.48694 2.73951101303
21.49193 3.76066207886
21.49692 3.729804039
21.50191 2.82775306702
21.5069 0.618984162807
21.51189 -1.96490526199
21.51688 -4.03248357773
21.52187 -5.18179273605
21.52686 -4.74070215225
21.53185 -3.6407699585
21.53684 -2.76456594467
21.54183 -2.00833106041
21.54682 -1.47898578644
21.55181 -0.921033799648
21.5568 -0.487052291632
21.56179 -0.214549422264
21.56678 -0.0563592910767
21.57177 0.0106760617346
21.57676 0.0907314196229
21.58175 0.113003626466
21.58674 0.0727921202779
21.59173 0.0993396937847
21.59672 0.100927449763
21.60171 0.125513628125
21.6067 0.272079259157
21.61169 0.222510263324
21.61668 0.141574844718
21.62167 0.153832554817
21.62666 0.25731793046
21.63165 0.33040651679
21.63664 0.377295225859
21.64163 0.430649608374
21.64662 0.385690897703
21.65161 0.394398987293
21.6566 0.511294186115
21.66159 0.565458118916
21.66658 0.56341189146
21.67157 0.620574772358
21.67656 0.658958733082
21.68155 0.715388774872
21.68654 0.814033269882
21.69153 0.832067966461
21.69652 1.00666987896
21.70151 1.05175352097
21.7065 1.14146757126
21.71149 1.2566485405
21.71648 1.34142911434
21.72147 1.45234882832
21.72646 1.60448658466
21.73145 1.76660013199
21.73644 1.84008431435
21.74143 1.97936594486
21.74642 1.93329358101
21.75141 1.94494640827
21.7564 2.01364445686
21.76139 2.04029297829
21.76638 2.02349281311
21.77137 1.83669281006
21.77636 1.6802226305
21.78135 1.5669952631
21.78634 1.4238653183
21.79133 1.13883602619
21.79632 1.01867246628
21.80131 0.717609405518
21.8063 0.662386715412
21.81129 0.436290740967
21.81628 0.243221953511
21.82127 0.0696503818035
21.82626 -0.14872777462
21.83125 -0.190712109208
21.83624 -0.299590885639
21.84123 -0.393203049898
21.84622 -0.471668303013
21.85121 -0.529623925686
21.8562 -0.564912080765
21.86119 -0.470819681883
21.86618 -0.497590601444
21.87117 -0.602069675922
21.87616 -0.539762556553
21.88115 -0.535977303982
21.88614 -0.521958291531
21.89113 -0.551232993603
21.89612 -0.516160130501
21.90111 -0.474510580301
21.9061 -0.397199302912
21.91109 -0.377042680979
21.91608 -0.304876476526
21.92107 -0.335740357637
21.92606 -0.306639581919
21.93105 -0.290026545525
21.93604 -0.24499489367
21.94103 -0.186303541064
21.94602 -0.229353949428
21.95101 -0.176434606314
21.956 -0.209161043167
21.96099 -0.25946906209
21.96598 -0.251739829779
21.97097 -0.22856387496
21.97596 -0.150559693575
21.98095 -0.11056727916
21.98594 -0.12400072068
21.99093 -0.175983399153
21.99592 -0.188193947077
22.00091 -0.161503821611
22.0059 -0.210571020842
22.01089 -0.237340837717
22.01588 -0.202726811171
22.02087 -0.262016713619
22.02586 -0.245684981346
22.03085 -0.336796045303
22.03584 -0.340934216976
22.04083 -0.362490624189
22.04582 -0.407052338123
22.05081 -0.35013744235
22.0558 -0.381453126669
22.06079 -0.435701370239
22.06578 -0.367764800787
22.07077 -0.353026866913
22.07576 -0.321103304625
22.08075 -0.359105557203
22.08574 -0.377030074596
22.09073 -0.451825976372
22.09572 -0.422831147909
22.10071 -0.423318147659
22.1057 -0.463022261858
22.11069 -0.500316917896
22.11568 -0.487141281366
22.12067 -0.437851279974
22.12566 -0.437633723021
22.13065 -0.461631536484
22.13564 -0.437917888165
22.14063 -0.35230961442
22.14562 -0.251581907272
22.15061 -0.323093831539
22.1556 -0.162959769368
22.16059 -0.0190513655543
22.16558 -0.00132469751406
22.17057 -0.0677548348904
22.17556 -0.159380972385
22.18055 -0.266426682472
22.18554 -0.0908437743783
22.19053 -0.0126256654039
22.19552 0.0380310341716
22.20051 0.0492163933814
22.2055 0.0377324819565
22.21049 -0.109290920198
22.21548 -0.344886809587
22.22047 -0.459901958704
22.22546 -0.366270661354
22.23045 -0.403394520283
22.23544 -0.494797736406
22.24043 -0.408686488867
22.24542 -0.528629302979
22.25041 -0.686753451824
22.2554 -0.74342828989
22.26039 -0.761579215527
22.26538 -0.558353245258
22.27037 -0.652460992336
22.27536 -0.653136909008
22.28035 -0.59794485569
22.28534 -0.572044849396
22.29033 -0.552624225616
22.29532 -0.566072225571
22.30031 -0.608571827412
22.3053 -0.582562744617
22.31029 -0.55461704731
22.31528 -0.568197369576
22.32027 -0.520525157452
22.32526 -0.457481265068
22.33025 -0.615346968174
22.33524 -0.652450203896
22.34023 0.0305188950151
22.34522 1.1865606308
22.35021 2.65210986137
22.3552 3.69650602341
22.36019 3.52004504204
22.36518 2.64436459541
22.37017 0.673789858818
22.37516 -2.04613113403
22.38015 -4.29392147064
22.38514 -5.27473831177
22.39013 -4.72195768356
22.39512 -3.6620361805
22.40011 -2.69579792023
22.4051 -1.98716330528
22.41009 -1.44798433781
22.41508 -0.73296302557
22.42007 -0.381014168262
22.42506 -0.150136455894
22.43005 -0.135267928243
22.43504 -0.00306308246218
22.44003 0.0449137575924
22.44502 0.151501789689
22.45001 0.116408251226
22.455 0.049143653363
22.45999 0.120972469449
22.46498 0.236251533031
22.46997 0.202630400658
22.47496 0.299210697412
22.47995 0.369581073523
22.48494 0.239974617958
22.48993 0.134033814073
22.49492 0.172619193792
22.49991 0.325328588486
22.5049 0.387205630541
22.50989 0.410633772612
22.51488 0.386727750301
22.51987 0.561756372452
22.52486 0.524206101894
22.52985 0.587557554245
22.53484 0.647687196732
22.53983 0.783992350101
22.54482 0.849583268166
22.54981 0.876623392105
22.5548 0.886052668095
22.55979 1.0698517561
22.56478 1.22145104408
22.56977 1.32548475266
22.57476 1.39922320843
22.57975 1.58224344254
22.58474 1.70844137669
22.58973 1.86244988441
22.59472 1.8746587038
22.59971 1.91084718704
22.6047 1.97367596626
22.60969 2.0115737915
22.61468 2.09749078751
22.61967 2.16002392769
22.62466 2.12683081627
22.62965 2.00390696526
22.63464 1.98604369164
22.63963 1.81066823006
22.64462 1.73043429852
22.64961 1.6042714119
22.6546 1.37358152866
22.65959 1.18909013271
22.66458 0.90905213356
22.66957 0.705643296242
22.67456 0.397858172655
22.67955 0.189783543348
22.68454 0.14440998435
22.68953 -0.0854404196143
22.69452 -0.214559152722
22.69951 -0.323211401701
22.7045 -0.381769061089
22.70949 -0.486477166414
22.71448 -0.602851688862
22.71947 -0.586674034595
22.72446 -0.657611191273
22.72945 -0.735613822937
22.73444 -0.630820810795
22.73943 -0.65289992094
22.74442 -0.544390380383
22.74941 -0.646862983704
22.7544 -0.617493271828
22.75939 -0.554327309132
22.76438 -0.618856668472
22.76937 -0.545482933521
22.77436 -0.508447349072
22.77935 -0.418824851513
22.78434 -0.4415628016
22.78933 -0.393806427717
22.79432 -0.471084207296
22.79931 -0.344320297241
22.8043 -0.25631198287
22.80929 -0.355316221714
22.81428 -0.293758273125
22.81927 -0.209385484457
22.82426 -0.219002008438
22.82925 -0.190766721964
22.83424 -0.256110966206
22.83923 -0.135047763586
22.84422 -0.107851870358
22.84921 -0.127483040094
22.8542 -0.191557571292
22.85919 -0.14714987576
22.86418 -0.0965675264597
22.86917 -0.14037579298
22.87416 -0.177882060409
22.87915 -0.331519216299
22.88414 -0.306618094444
22.88913 -0.330796539783
22.89412 -0.380370587111
22.89911 -0.393068522215
22.9041 -0.418008625507
22.90909 -0.418776273727
22.91408 -0.358554750681
22.91907 -0.393978893757
22.92406 -0.389935016632
22.92905 -0.504010498524
22.93404 -0.373416185379
22.93903 -0.434447497129
22.94402 -0.473976820707
22.94901 -0.329414099455
22.954 -0.316641926765
22.95899 -0.296060830355
22.96398 -0.319844454527
22.96897 -0.35277184844
22.97396 -0.367531567812
22.97895 -0.347247004509
22.98394 -0.295140653849
22.98893 -0.229361355305
22.99392 -0.206946089864
22.99891 -0.134660318494
23.0039 -0.0570526756346
23.00889 -0.053964253515
23.01388 0.0667977035046
23.01887 0.125965639949
23.02386 0.0590688660741
23.02885 -0.171144753695
23.03384 -0.205587550998
23.03883 0.0673272535205
23.04382 0.138381525874
23.04881 0.107072688639
23.0538 0.074336335063
23.05879 -0.0177133660764
23.06378 -0.182015448809
23.06877 -0.277979254723
23.07376 -0.32875880599
23.07875 -0.345890432596
23.08374 -0.332776635885
23.08873 -0.390620142221
23.09372 -0.514869987965
23.09871 -0.581212818623
23.1037 -0.583025515079
23.10869 -0.617807984352
23.11368 -0.604572713375
23.11867 -0.594860494137
23.12366 -0.643765509129
23.12865 -0.518430650234
23.13364 -0.631878733635
23.13863 -0.629633963108
23.14362 -0.580371320248
23.14861 -0.521661043167
23.1536 -0.459543019533
23.15859 -0.577346503735
23.16358 -0.452047646046
23.16857 -0.424684196711
23.17356 -0.411660701036
23.17855 -0.400642305613
23.18354 -0.486169219017
23.18853 -0.0544840171933
23.19352 0.937813639641
23.19851 2.29159140587
23.2035 3.72999334335
23.20849 3.68475556374
23.21348 2.83174157143
23.21847 1.10475099087
23.22346 -1.57408714294
23.22845 -3.92415165901
23.23344 -5.10626125336
23.23843 -4.61267566681
23.24342 -3.45457386971
23.24841 -2.59259295464
23.2534 -1.90680778027
23.25839 -1.44953286648
23.26338 -0.833812832832
23.26837 -0.441014617682
23.27336 -0.189361572266
23.27835 0.021297601983
23.28334 0.0857065916061
23.28833 0.0900693312287
23.29332 0.13773047924
23.29831 0.109564967453
23.3033 0.113285668194
23.30829 0.201421707869
23.31328 0.197103306651
23.31827 0.358460098505
23.32326 0.277164965868
23.32825 0.21862219274
23.33324 0.235211357474
23.33823 0.181836277246
23.34322 0.301795780659
23.34821 0.328223466873
23.3532 0.297430366278
23.35819 0.358620613813
23.36318 0.512169182301
23.36817 0.5136911273
23.37316 0.610313236713
23.37815 0.732530415058
23.38314 0.76260304451
23.38813 0.864988803864
23.39312 0.859753608704
23.39811 0.933474123478
23.4031 1.06225681305
23.40809 1.15007829666
23.41308 1.24605917931
23.41807 1.358481884
23.42306 1.49993133545
23.42805 1.59946858883
23.43304 1.64625692368
23.43803 1.7227370739
23.44302 1.92417144775
23.44801 1.94776654243
23.453 2.03488087654
23.45799 2.02499604225
23.46298 1.90439343452
23.46797 1.98715615273
23.47296 1.96791744232
23.47795 1.98682034016
23.48294 1.95697522163
23.48793 1.82728254795
23.49292 1.7078576088
23.49791 1.34203600883
23.5029 1.27402734756
23.50789 0.963414907455
23.51288 0.757933437824
23.51787 0.641258299351
23.52286 0.398177832365
23.52785 0.276853144169
23.53284 0.179442256689
23.53783 -0.046862244606
23.54282 -0.246958345175
23.54781 -0.311256557703
23.5528 -0.339626044035
23.55779 -0.239811107516
23.56278 -0.359225302935
23.56777 -0.456490129232
23.57276 -0.476867377758
23.57775 -0.529701948166
23.58274 -0.570710361004
23.58773 -0.593896448612
23.59272 -0.554919779301
23.59771 -0.519610106945
23.6027 -0.532015383244
23.60769 -0.480635821819
23.61268 -0.494001686573
23.61767 -0.432507455349
23.62266 -0.455717712641
23.62765 -0.441999226809
23.63264 -0.321847319603
23.63763 -0.322353303432
23.64262 -0.265740901232
23.64761 -0.22885261476
23.6526 -0.247577771544
23.65759 -0.23359516263
23.66258 -0.251585811377
23.66757 -0.154890343547
23.67256 -0.150580570102
23.67755 -0.0961301103234
23.68254 -0.161038845778
23.68753 -0.128130033612
23.69252 -0.213698580861
23.69751 -0.122046381235
23.7025 -0.124491594732
23.70749 -0.115338802338
23.71248 -0.150677874684
23.71747 -0.134451955557
23.72246 -0.210156515241
23.72745 -0.177111133933
23.73244 -0.301435112953
23.73743 -0.271433800459
23.74242 -0.162484362721
23.74741 -0.241281211376
23.7524 -0.384531199932
23.75739 -0.356860905886
23.76238 -0.315716415644
23.76737 -0.269230335951
23.77236 -0.309901207685
23.77735 -0.317497640848
23.78234 -0.412631243467
23.78733 -0.344238549471
23.79232 -0.363631367683
23.79731 -0.330960899591
23.8023 -0.360575020313
23.80729 -0.355802237988
23.81228 -0.27871504426
23.81727 -0.295185595751
23.82226 -0.22139634192
23.82725 -0.267447829247
23.83224 -0.376668721437
23.83723 -0.319234758615
23.84222 -0.26182243228
23.84721 -0.330283343792
23.8522 -0.300574600697
23.85719 -0.221453413367
23.86218 -0.10181016475
23.86717 0.0301725007594
23.87216 0.0487559102476
23.87715 0.0444161370397
23.88214 -0.0219808556139
23.88713 -0.00594370113686
23.89212 -0.163917556405
23.89711 -0.0681887716055
23.9021 0.0241514761001
23.90709 0.127731502056
23.91208 0.111234262586
23.91707 0.0360047146678
23.92206 -0.168616876006
23.92705 -0.194602161646
23.93204 -0.329405158758
23.93703 -0.340626776218
23.94202 -0.295284241438
23.94701 -0.309523552656
23.952 -0.452745854855
23.95699 -0.524537026882
23.96198 -0.569442808628
23.96697 -0.623423933983
23.97196 -0.679209291935
23.97695 -0.601780056953
23.98194 -0.583795666695
23.98693 -0.560895562172
23.99192 -0.603797733784
23.99691 -0.613163173199
24.0019 -0.63224375248
24.00689 -0.599061369896
24.01188 -0.581459522247
24.01687 -0.600814580917
24.02186 -0.493938237429
24.02685 -0.475710064173
24.03184 -0.518638432026
